# Name of benchmark/experiment: FILLET Experiment 2a (cold start, au)
# Case number: 27
# Instellation (S_earth): 1.108033
# XCO2 (ppm): 280.0
# Obliquity (degrees): 10.0
# Mode: seasonal
#
# Columns of data (annually averaged for last orbit)
# Lat Tsurf Asurf ATOA OLR Fland
 -90.00   220.30 0.6000 0.6000   104.31 0.2500
 -77.83   223.55 0.6000 0.6000   110.79 0.2500
 -72.76   225.61 0.6000 0.6000   114.92 0.2500
 -68.84   227.36 0.6000 0.6000   118.42 0.2500
 -65.52   228.93 0.6000 0.6000   121.56 0.2500
 -62.58   230.38 0.6000 0.6000   124.46 0.2500
 -59.90   231.72 0.6000 0.6000   127.15 0.2500
 -57.43   232.99 0.6000 0.6000   129.67 0.2500
 -55.11   234.18 0.6000 0.6000   132.05 0.2500
 -52.92   235.30 0.6000 0.6000   134.30 0.2500
 -50.83   236.37 0.6000 0.6000   136.44 0.2500
 -48.83   237.38 0.6000 0.6000   138.46 0.2500
 -46.91   238.35 0.6000 0.6000   140.39 0.2500
 -45.06   239.26 0.6000 0.6000   142.22 0.2500
 -43.27   240.14 0.6000 0.6000   143.97 0.2500
 -41.52   240.97 0.6000 0.6000   145.63 0.2500
 -39.83   241.76 0.6000 0.6000   147.22 0.2500
 -38.17   242.51 0.6000 0.6000   148.73 0.2500
 -36.55   243.23 0.6000 0.6000   150.17 0.2500
 -34.96   243.92 0.6000 0.6000   151.53 0.2500
 -33.41   244.57 0.6000 0.6000   152.83 0.2500
 -31.88   245.19 0.6000 0.6000   154.07 0.2500
 -30.37   245.77 0.6000 0.6000   155.24 0.2500
 -28.89   246.33 0.6000 0.6000   156.36 0.2500
 -27.43   246.86 0.6000 0.6000   157.41 0.2500
 -25.99   247.35 0.6000 0.6000   158.41 0.2500
 -24.57   247.82 0.6000 0.6000   159.35 0.2500
 -23.16   248.26 0.6000 0.6000   160.23 0.2500
 -21.76   248.68 0.6000 0.6000   161.06 0.2500
 -20.38   249.07 0.6000 0.6000   161.83 0.2500
 -19.02   249.43 0.6000 0.6000   162.56 0.2500
 -17.66   249.77 0.6000 0.6000   163.23 0.2500
 -16.31   250.08 0.6000 0.6000   163.85 0.2500
 -14.98   250.36 0.6000 0.6000   164.42 0.2500
 -13.65   250.62 0.6000 0.6000   164.94 0.2500
 -12.33   250.86 0.6000 0.6000   165.42 0.2500
 -11.01   251.07 0.6000 0.6000   165.84 0.2500
  -9.70   251.26 0.6000 0.6000   166.22 0.2500
  -8.40   251.42 0.6000 0.6000   166.54 0.2500
  -7.10   251.56 0.6000 0.6000   166.83 0.2500
  -5.80   251.68 0.6000 0.6000   167.06 0.2500
  -4.51   251.77 0.6000 0.6000   167.25 0.2500
  -3.22   251.84 0.6000 0.6000   167.38 0.2500
  -1.93   251.89 0.6000 0.6000   167.48 0.2500
  -0.64   251.91 0.6000 0.6000   167.52 0.2500
   0.64   251.91 0.6000 0.6000   167.52 0.2500
   1.93   251.89 0.6000 0.6000   167.48 0.2500
   3.22   251.84 0.6000 0.6000   167.38 0.2500
   4.51   251.77 0.6000 0.6000   167.25 0.2500
   5.80   251.68 0.6000 0.6000   167.06 0.2500
   7.10   251.56 0.6000 0.6000   166.83 0.2500
   8.40   251.42 0.6000 0.6000   166.54 0.2500
   9.70   251.26 0.6000 0.6000   166.22 0.2500
  11.01   251.07 0.6000 0.6000   165.84 0.2500
  12.33   250.86 0.6000 0.6000   165.42 0.2500
  13.65   250.62 0.6000 0.6000   164.94 0.2500
  14.98   250.36 0.6000 0.6000   164.42 0.2500
  16.31   250.08 0.6000 0.6000   163.85 0.2500
  17.66   249.77 0.6000 0.6000   163.23 0.2500
  19.02   249.43 0.6000 0.6000   162.56 0.2500
  20.38   249.07 0.6000 0.6000   161.83 0.2500
  21.76   248.68 0.6000 0.6000   161.06 0.2500
  23.16   248.26 0.6000 0.6000   160.23 0.2500
  24.57   247.82 0.6000 0.6000   159.35 0.2500
  25.99   247.35 0.6000 0.6000   158.41 0.2500
  27.43   246.86 0.6000 0.6000   157.41 0.2500
  28.89   246.33 0.6000 0.6000   156.36 0.2500
  30.37   245.77 0.6000 0.6000   155.24 0.2500
  31.88   245.19 0.6000 0.6000   154.07 0.2500
  33.41   244.57 0.6000 0.6000   152.83 0.2500
  34.96   243.92 0.6000 0.6000   151.53 0.2500
  36.55   243.23 0.6000 0.6000   150.17 0.2500
  38.17   242.51 0.6000 0.6000   148.73 0.2500
  39.83   241.76 0.6000 0.6000   147.22 0.2500
  41.52   240.97 0.6000 0.6000   145.63 0.2500
  43.27   240.14 0.6000 0.6000   143.97 0.2500
  45.06   239.26 0.6000 0.6000   142.22 0.2500
  46.91   238.35 0.6000 0.6000   140.39 0.2500
  48.83   237.38 0.6000 0.6000   138.46 0.2500
  50.83   236.37 0.6000 0.6000   136.44 0.2500
  52.92   235.30 0.6000 0.6000   134.30 0.2500
  55.11   234.18 0.6000 0.6000   132.05 0.2500
  57.43   232.99 0.6000 0.6000   129.67 0.2500
  59.90   231.72 0.6000 0.6000   127.15 0.2500
  62.58   230.38 0.6000 0.6000   124.46 0.2500
  65.52   228.93 0.6000 0.6000   121.56 0.2500
  68.84   227.36 0.6000 0.6000   118.42 0.2500
  72.76   225.61 0.6000 0.6000   114.92 0.2500
  77.83   223.55 0.6000 0.6000   110.79 0.2500
  90.00   220.30 0.6000 0.6000   104.31 0.2500
