# Name of benchmark/experiment: FILLET Experiment 2a (cold start, au)
# Case number: 144
# Instellation (S_earth): 1.200976
# XCO2 (ppm): 280.0
# Obliquity (degrees): 90.0
# Mode: seasonal
#
# Columns of data (annually averaged for last orbit)
# Lat Tsurf Asurf ATOA OLR Fland
 -90.00   346.50 0.2250 0.2250   356.71 0.2500
 -77.83   344.82 0.2250 0.2250   353.34 0.2500
 -72.76   343.55 0.2250 0.2250   350.80 0.2500
 -68.84   342.36 0.2250 0.2250   348.43 0.2500
 -65.52   341.21 0.2250 0.2250   346.13 0.2500
 -62.58   340.10 0.2250 0.2250   343.90 0.2500
 -59.90   339.02 0.2250 0.2250   341.73 0.2500
 -57.43   337.96 0.2250 0.2250   339.63 0.2500
 -55.11   336.94 0.2250 0.2250   337.59 0.2500
 -52.92   335.95 0.2250 0.2250   335.60 0.2500
 -50.83   334.98 0.2250 0.2250   333.65 0.2500
 -48.83   334.02 0.2250 0.2250   331.74 0.2500
 -46.91   333.09 0.2250 0.2250   329.88 0.2500
 -45.06   332.17 0.2250 0.2250   328.04 0.2500
 -43.27   331.27 0.2250 0.2250   326.25 0.2500
 -41.52   330.39 0.2250 0.2250   324.48 0.2500
 -39.83   329.53 0.2250 0.2250   322.75 0.2500
 -38.17   328.68 0.2250 0.2250   321.06 0.2500
 -36.55   327.86 0.2250 0.2250   319.41 0.2500
 -34.96   327.05 0.2250 0.2250   317.80 0.2500
 -33.41   326.27 0.2250 0.2250   316.23 0.2500
 -31.88   325.51 0.2250 0.2250   314.71 0.2500
 -30.37   324.77 0.2250 0.2250   313.24 0.2500
 -28.89   324.06 0.2250 0.2250   311.82 0.2500
 -27.43   323.38 0.2250 0.2250   310.46 0.2500
 -25.99   322.73 0.2250 0.2250   309.15 0.2500
 -24.57   322.10 0.2250 0.2250   307.90 0.2500
 -23.16   321.50 0.2250 0.2250   306.71 0.2500
 -21.76   320.93 0.2250 0.2250   305.57 0.2500
 -20.38   320.39 0.2250 0.2250   304.49 0.2500
 -19.02   319.88 0.2250 0.2250   303.46 0.2500
 -17.66   319.40 0.2250 0.2250   302.49 0.2500
 -16.31   318.94 0.2250 0.2250   301.58 0.2500
 -14.98   318.52 0.2250 0.2250   300.73 0.2500
 -13.65   318.12 0.2250 0.2250   299.94 0.2500
 -12.33   317.75 0.2250 0.2250   299.21 0.2500
 -11.01   317.42 0.2250 0.2250   298.54 0.2500
  -9.70   317.12 0.2250 0.2250   297.93 0.2500
  -8.40   316.85 0.2250 0.2250   297.39 0.2500
  -7.10   316.61 0.2250 0.2250   296.92 0.2500
  -5.80   316.41 0.2250 0.2250   296.52 0.2500
  -4.51   316.24 0.2250 0.2250   296.19 0.2500
  -3.22   316.12 0.2250 0.2250   295.94 0.2500
  -1.93   316.03 0.2250 0.2250   295.76 0.2500
  -0.64   315.99 0.2250 0.2250   295.68 0.2500
   0.64   315.99 0.2250 0.2250   295.68 0.2500
   1.93   316.03 0.2250 0.2250   295.76 0.2500
   3.22   316.12 0.2250 0.2250   295.94 0.2500
   4.51   316.24 0.2250 0.2250   296.19 0.2500
   5.80   316.41 0.2250 0.2250   296.52 0.2500
   7.10   316.61 0.2250 0.2250   296.92 0.2500
   8.40   316.85 0.2250 0.2250   297.39 0.2500
   9.70   317.12 0.2250 0.2250   297.93 0.2500
  11.01   317.42 0.2250 0.2250   298.54 0.2500
  12.33   317.75 0.2250 0.2250   299.21 0.2500
  13.65   318.12 0.2250 0.2250   299.94 0.2500
  14.98   318.52 0.2250 0.2250   300.73 0.2500
  16.31   318.94 0.2250 0.2250   301.58 0.2500
  17.66   319.40 0.2250 0.2250   302.49 0.2500
  19.02   319.88 0.2250 0.2250   303.46 0.2500
  20.38   320.39 0.2250 0.2250   304.49 0.2500
  21.76   320.93 0.2250 0.2250   305.57 0.2500
  23.16   321.50 0.2250 0.2250   306.71 0.2500
  24.57   322.10 0.2250 0.2250   307.90 0.2500
  25.99   322.73 0.2250 0.2250   309.15 0.2500
  27.43   323.38 0.2250 0.2250   310.46 0.2500
  28.89   324.06 0.2250 0.2250   311.82 0.2500
  30.37   324.77 0.2250 0.2250   313.24 0.2500
  31.88   325.51 0.2250 0.2250   314.71 0.2500
  33.41   326.27 0.2250 0.2250   316.23 0.2500
  34.96   327.05 0.2250 0.2250   317.80 0.2500
  36.55   327.86 0.2250 0.2250   319.41 0.2500
  38.17   328.68 0.2250 0.2250   321.06 0.2500
  39.83   329.53 0.2250 0.2250   322.75 0.2500
  41.52   330.39 0.2250 0.2250   324.48 0.2500
  43.27   331.27 0.2250 0.2250   326.25 0.2500
  45.06   332.17 0.2250 0.2250   328.04 0.2500
  46.91   333.09 0.2250 0.2250   329.88 0.2500
  48.83   334.02 0.2250 0.2250   331.74 0.2500
  50.83   334.98 0.2250 0.2250   333.65 0.2500
  52.92   335.95 0.2250 0.2250   335.60 0.2500
  55.11   336.94 0.2250 0.2250   337.59 0.2500
  57.43   337.96 0.2250 0.2250   339.63 0.2500
  59.90   339.02 0.2250 0.2250   341.73 0.2500
  62.58   340.10 0.2250 0.2250   343.90 0.2500
  65.52   341.21 0.2250 0.2250   346.13 0.2500
  68.84   342.36 0.2250 0.2250   348.43 0.2500
  72.76   343.55 0.2250 0.2250   350.80 0.2500
  77.83   344.82 0.2250 0.2250   353.34 0.2500
  90.00   346.50 0.2250 0.2250   356.71 0.2500
