# Name of benchmark/experiment: FILLET Experiment 2a (cold start, au)
# Case number: 2
# Instellation (S_earth): 1.469238
# XCO2 (ppm): 280.0
# Obliquity (degrees): 0.0
# Mode: seasonal
#
# Columns of data (annually averaged for last orbit)
# Lat Tsurf Asurf ATOA OLR Fland
 -90.00   293.80 0.2250 0.2250   251.30 0.2500
 -77.83   305.16 0.2250 0.2250   274.02 0.2500
 -72.76   311.58 0.2250 0.2250   286.86 0.2500
 -68.84   316.78 0.2250 0.2250   297.25 0.2500
 -65.52   321.33 0.2250 0.2250   306.36 0.2500
 -62.58   325.45 0.2250 0.2250   314.60 0.2500
 -59.90   329.24 0.2250 0.2250   322.18 0.2500
 -57.43   332.76 0.2250 0.2250   329.23 0.2500
 -55.11   336.07 0.2250 0.2250   335.83 0.2500
 -52.92   339.17 0.2250 0.2250   342.04 0.2500
 -50.83   342.10 0.2250 0.2250   347.91 0.2500
 -48.83   344.88 0.2250 0.2250   353.46 0.2500
 -46.91   347.51 0.2250 0.2250   358.72 0.2500
 -45.06   350.01 0.2250 0.2250   363.72 0.2500
 -43.27   352.38 0.2250 0.2250   368.46 0.2500
 -41.52   354.64 0.2250 0.2250   372.97 0.2500
 -39.83   356.78 0.2250 0.2250   377.27 0.2500
 -38.17   358.82 0.2250 0.2250   381.35 0.2500
 -36.55   360.76 0.2250 0.2250   385.23 0.2500
 -34.96   362.61 0.2250 0.2250   388.92 0.2500
 -33.41   364.36 0.2250 0.2250   392.43 0.2500
 -31.88   366.03 0.2250 0.2250   395.75 0.2500
 -30.37   367.61 0.2250 0.2250   398.91 0.2500
 -28.89   369.10 0.2250 0.2250   401.90 0.2500
 -27.43   370.52 0.2250 0.2250   404.73 0.2500
 -25.99   371.85 0.2250 0.2250   407.40 0.2500
 -24.57   373.11 0.2250 0.2250   409.92 0.2500
 -23.16   374.29 0.2250 0.2250   412.29 0.2500
 -21.76   375.41 0.2250 0.2250   414.51 0.2500
 -20.38   376.45 0.2250 0.2250   416.59 0.2500
 -19.02   377.41 0.2250 0.2250   418.53 0.2500
 -17.66   378.31 0.2250 0.2250   420.33 0.2500
 -16.31   379.14 0.2250 0.2250   421.99 0.2500
 -14.98   379.91 0.2250 0.2250   423.52 0.2500
 -13.65   380.61 0.2250 0.2250   424.91 0.2500
 -12.33   381.24 0.2250 0.2250   426.17 0.2500
 -11.01   381.80 0.2250 0.2250   427.31 0.2500
  -9.70   382.31 0.2250 0.2250   428.31 0.2500
  -8.40   382.74 0.2250 0.2250   429.19 0.2500
  -7.10   383.12 0.2250 0.2250   429.94 0.2500
  -5.80   383.43 0.2250 0.2250   430.56 0.2500
  -4.51   383.68 0.2250 0.2250   431.06 0.2500
  -3.22   383.87 0.2250 0.2250   431.43 0.2500
  -1.93   383.99 0.2250 0.2250   431.68 0.2500
  -0.64   384.05 0.2250 0.2250   431.80 0.2500
   0.64   384.05 0.2250 0.2250   431.80 0.2500
   1.93   383.99 0.2250 0.2250   431.68 0.2500
   3.22   383.87 0.2250 0.2250   431.43 0.2500
   4.51   383.68 0.2250 0.2250   431.06 0.2500
   5.80   383.43 0.2250 0.2250   430.56 0.2500
   7.10   383.12 0.2250 0.2250   429.94 0.2500
   8.40   382.74 0.2250 0.2250   429.19 0.2500
   9.70   382.31 0.2250 0.2250   428.31 0.2500
  11.01   381.80 0.2250 0.2250   427.31 0.2500
  12.33   381.24 0.2250 0.2250   426.17 0.2500
  13.65   380.61 0.2250 0.2250   424.91 0.2500
  14.98   379.91 0.2250 0.2250   423.52 0.2500
  16.31   379.14 0.2250 0.2250   421.99 0.2500
  17.66   378.31 0.2250 0.2250   420.33 0.2500
  19.02   377.41 0.2250 0.2250   418.53 0.2500
  20.38   376.45 0.2250 0.2250   416.59 0.2500
  21.76   375.41 0.2250 0.2250   414.51 0.2500
  23.16   374.29 0.2250 0.2250   412.29 0.2500
  24.57   373.11 0.2250 0.2250   409.92 0.2500
  25.99   371.85 0.2250 0.2250   407.40 0.2500
  27.43   370.52 0.2250 0.2250   404.73 0.2500
  28.89   369.10 0.2250 0.2250   401.90 0.2500
  30.37   367.61 0.2250 0.2250   398.91 0.2500
  31.88   366.03 0.2250 0.2250   395.75 0.2500
  33.41   364.36 0.2250 0.2250   392.43 0.2500
  34.96   362.61 0.2250 0.2250   388.92 0.2500
  36.55   360.76 0.2250 0.2250   385.23 0.2500
  38.17   358.82 0.2250 0.2250   381.35 0.2500
  39.83   356.78 0.2250 0.2250   377.27 0.2500
  41.52   354.64 0.2250 0.2250   372.97 0.2500
  43.27   352.38 0.2250 0.2250   368.46 0.2500
  45.06   350.01 0.2250 0.2250   363.72 0.2500
  46.91   347.51 0.2250 0.2250   358.72 0.2500
  48.83   344.88 0.2250 0.2250   353.46 0.2500
  50.83   342.10 0.2250 0.2250   347.91 0.2500
  52.92   339.17 0.2250 0.2250   342.04 0.2500
  55.11   336.07 0.2250 0.2250   335.83 0.2500
  57.43   332.76 0.2250 0.2250   329.23 0.2500
  59.90   329.24 0.2250 0.2250   322.18 0.2500
  62.58   325.45 0.2250 0.2250   314.60 0.2500
  65.52   321.33 0.2250 0.2250   306.36 0.2500
  68.84   316.78 0.2250 0.2250   297.25 0.2500
  72.76   311.58 0.2250 0.2250   286.86 0.2500
  77.83   305.16 0.2250 0.2250   274.02 0.2500
  90.00   293.80 0.2250 0.2250   251.30 0.2500
