# Name of benchmark/experiment: FILLET Experiment 4 (CO₂ bifurcation)
# Case number: 90
# Branch: warming
# Instellation (S_earth): 1.0
# XCO2 (ppm): 12067.92640639329
# Obliquity (degrees): 23.5
# Mode: seasonal
#
# Columns of data (annually averaged for last orbit)
# Lat Tsurf Asurf ATOA OLR Fland
 -90.00   231.10 0.6000 0.6000   105.76 0.2500
 -77.83   232.83 0.6000 0.6000   109.22 0.2500
 -72.76   233.97 0.6000 0.6000   111.51 0.2500
 -68.84   234.99 0.6000 0.6000   113.55 0.2500
 -65.52   235.96 0.6000 0.6000   115.48 0.2500
 -62.58   236.87 0.6000 0.6000   117.31 0.2500
 -59.90   237.76 0.6000 0.6000   119.08 0.2500
 -57.43   238.60 0.6000 0.6000   120.77 0.2500
 -55.11   239.41 0.6000 0.6000   122.39 0.2500
 -52.92   240.19 0.6000 0.6000   123.95 0.2500
 -50.83   240.94 0.6000 0.6000   125.44 0.2500
 -48.83   241.66 0.6000 0.6000   126.88 0.2500
 -46.91   242.34 0.6000 0.6000   128.25 0.2500
 -45.06   243.00 0.6000 0.6000   129.57 0.2500
 -43.27   243.64 0.6000 0.6000   130.84 0.2500
 -41.52   244.24 0.6000 0.6000   132.05 0.2500
 -39.83   244.82 0.6000 0.6000   133.21 0.2500
 -38.17   245.38 0.6000 0.6000   134.32 0.2500
 -36.55   245.91 0.6000 0.6000   135.39 0.2500
 -34.96   246.42 0.6000 0.6000   136.40 0.2500
 -33.41   246.90 0.6000 0.6000   137.37 0.2500
 -31.88   247.37 0.6000 0.6000   138.30 0.2500
 -30.37   247.80 0.6000 0.6000   139.17 0.2500
 -28.89   248.22 0.6000 0.6000   140.01 0.2500
 -27.43   248.62 0.6000 0.6000   140.80 0.2500
 -25.99   249.00 0.6000 0.6000   141.56 0.2500
 -24.57   249.35 0.6000 0.6000   142.27 0.2500
 -23.16   249.68 0.6000 0.6000   142.93 0.2500
 -21.76   250.00 0.6000 0.6000   143.56 0.2500
 -20.38   250.29 0.6000 0.6000   144.15 0.2500
 -19.02   250.57 0.6000 0.6000   144.70 0.2500
 -17.66   250.83 0.6000 0.6000   145.22 0.2500
 -16.31   251.06 0.6000 0.6000   145.69 0.2500
 -14.98   251.28 0.6000 0.6000   146.13 0.2500
 -13.65   251.48 0.6000 0.6000   146.53 0.2500
 -12.33   251.66 0.6000 0.6000   146.89 0.2500
 -11.01   251.82 0.6000 0.6000   147.21 0.2500
  -9.70   251.97 0.6000 0.6000   147.50 0.2500
  -8.40   252.09 0.6000 0.6000   147.75 0.2500
  -7.10   252.20 0.6000 0.6000   147.97 0.2500
  -5.80   252.29 0.6000 0.6000   148.14 0.2500
  -4.51   252.36 0.6000 0.6000   148.29 0.2500
  -3.22   252.41 0.6000 0.6000   148.39 0.2500
  -1.93   252.45 0.6000 0.6000   148.47 0.2500
  -0.64   252.47 0.6000 0.6000   148.50 0.2500
   0.64   252.47 0.6000 0.6000   148.50 0.2500
   1.93   252.45 0.6000 0.6000   148.47 0.2500
   3.22   252.41 0.6000 0.6000   148.39 0.2500
   4.51   252.36 0.6000 0.6000   148.29 0.2500
   5.80   252.29 0.6000 0.6000   148.14 0.2500
   7.10   252.20 0.6000 0.6000   147.97 0.2500
   8.40   252.09 0.6000 0.6000   147.75 0.2500
   9.70   251.97 0.6000 0.6000   147.50 0.2500
  11.01   251.82 0.6000 0.6000   147.21 0.2500
  12.33   251.66 0.6000 0.6000   146.89 0.2500
  13.65   251.48 0.6000 0.6000   146.53 0.2500
  14.98   251.28 0.6000 0.6000   146.13 0.2500
  16.31   251.06 0.6000 0.6000   145.69 0.2500
  17.66   250.83 0.6000 0.6000   145.22 0.2500
  19.02   250.57 0.6000 0.6000   144.70 0.2500
  20.38   250.29 0.6000 0.6000   144.15 0.2500
  21.76   250.00 0.6000 0.6000   143.56 0.2500
  23.16   249.68 0.6000 0.6000   142.94 0.2500
  24.57   249.35 0.6000 0.6000   142.27 0.2500
  25.99   249.00 0.6000 0.6000   141.56 0.2500
  27.43   248.62 0.6000 0.6000   140.80 0.2500
  28.89   248.22 0.6000 0.6000   140.01 0.2500
  30.37   247.80 0.6000 0.6000   139.17 0.2500
  31.88   247.37 0.6000 0.6000   138.30 0.2500
  33.41   246.90 0.6000 0.6000   137.37 0.2500
  34.96   246.42 0.6000 0.6000   136.40 0.2500
  36.55   245.91 0.6000 0.6000   135.39 0.2500
  38.17   245.38 0.6000 0.6000   134.32 0.2500
  39.83   244.82 0.6000 0.6000   133.21 0.2500
  41.52   244.24 0.6000 0.6000   132.05 0.2500
  43.27   243.64 0.6000 0.6000   130.84 0.2500
  45.06   243.00 0.6000 0.6000   129.57 0.2500
  46.91   242.34 0.6000 0.6000   128.25 0.2500
  48.83   241.66 0.6000 0.6000   126.88 0.2500
  50.83   240.94 0.6000 0.6000   125.44 0.2500
  52.92   240.19 0.6000 0.6000   123.95 0.2500
  55.11   239.41 0.6000 0.6000   122.39 0.2500
  57.43   238.60 0.6000 0.6000   120.77 0.2500
  59.90   237.76 0.6000 0.6000   119.08 0.2500
  62.58   236.87 0.6000 0.6000   117.32 0.2500
  65.52   235.96 0.6000 0.6000   115.48 0.2500
  68.84   234.99 0.6000 0.6000   113.55 0.2500
  72.76   233.97 0.6000 0.6000   111.51 0.2500
  77.83   232.83 0.6000 0.6000   109.22 0.2500
  90.00   231.10 0.6000 0.6000   105.76 0.2500
