# Name of benchmark/experiment: FILLET Experiment 1 (warm start)
# Case number: 12
# Instellation (S_earth): 1.1
# XCO2 (ppm): 280.0
# Obliquity (degrees): 0.0
# Mode: seasonal
#
# Columns of data (annually averaged for last orbit)
# Lat Tsurf Asurf ATOA OLR Fland
 -90.00   262.22 0.6000 0.6000   188.15 0.2500
 -77.83   270.73 0.2250 0.2250   205.15 0.2500
 -72.76   275.53 0.2250 0.2250   214.77 0.2500
 -68.84   279.42 0.2250 0.2250   222.55 0.2500
 -65.52   282.83 0.2250 0.2250   229.37 0.2500
 -62.58   285.92 0.2250 0.2250   235.53 0.2500
 -59.90   288.76 0.2250 0.2250   241.21 0.2500
 -57.43   291.40 0.2250 0.2250   246.49 0.2500
 -55.11   293.87 0.2250 0.2250   251.43 0.2500
 -52.92   296.19 0.2250 0.2250   256.08 0.2500
 -50.83   298.39 0.2250 0.2250   260.47 0.2500
 -48.83   300.46 0.2250 0.2250   264.63 0.2500
 -46.91   302.43 0.2250 0.2250   268.57 0.2500
 -45.06   304.30 0.2250 0.2250   272.31 0.2500
 -43.27   306.08 0.2250 0.2250   275.86 0.2500
 -41.52   307.77 0.2250 0.2250   279.24 0.2500
 -39.83   309.38 0.2250 0.2250   282.45 0.2500
 -38.17   310.90 0.2250 0.2250   285.51 0.2500
 -36.55   312.36 0.2250 0.2250   288.42 0.2500
 -34.96   313.74 0.2250 0.2250   291.18 0.2500
 -33.41   315.05 0.2250 0.2250   293.80 0.2500
 -31.88   316.30 0.2250 0.2250   296.30 0.2500
 -30.37   317.48 0.2250 0.2250   298.66 0.2500
 -28.89   318.60 0.2250 0.2250   300.90 0.2500
 -27.43   319.66 0.2250 0.2250   303.02 0.2500
 -25.99   320.66 0.2250 0.2250   305.02 0.2500
 -24.57   321.60 0.2250 0.2250   306.90 0.2500
 -23.16   322.49 0.2250 0.2250   308.68 0.2500
 -21.76   323.32 0.2250 0.2250   310.34 0.2500
 -20.38   324.10 0.2250 0.2250   311.90 0.2500
 -19.02   324.82 0.2250 0.2250   313.35 0.2500
 -17.66   325.50 0.2250 0.2250   314.69 0.2500
 -16.31   326.12 0.2250 0.2250   315.94 0.2500
 -14.98   326.69 0.2250 0.2250   317.08 0.2500
 -13.65   327.21 0.2250 0.2250   318.12 0.2500
 -12.33   327.69 0.2250 0.2250   319.07 0.2500
 -11.01   328.11 0.2250 0.2250   319.92 0.2500
  -9.70   328.49 0.2250 0.2250   320.67 0.2500
  -8.40   328.81 0.2250 0.2250   321.33 0.2500
  -7.10   329.09 0.2250 0.2250   321.89 0.2500
  -5.80   329.33 0.2250 0.2250   322.35 0.2500
  -4.51   329.51 0.2250 0.2250   322.73 0.2500
  -3.22   329.65 0.2250 0.2250   323.01 0.2500
  -1.93   329.75 0.2250 0.2250   323.19 0.2500
  -0.64   329.79 0.2250 0.2250   323.29 0.2500
   0.64   329.79 0.2250 0.2250   323.29 0.2500
   1.93   329.75 0.2250 0.2250   323.19 0.2500
   3.22   329.65 0.2250 0.2250   323.01 0.2500
   4.51   329.51 0.2250 0.2250   322.73 0.2500
   5.80   329.33 0.2250 0.2250   322.35 0.2500
   7.10   329.09 0.2250 0.2250   321.89 0.2500
   8.40   328.81 0.2250 0.2250   321.33 0.2500
   9.70   328.49 0.2250 0.2250   320.67 0.2500
  11.01   328.11 0.2250 0.2250   319.92 0.2500
  12.33   327.69 0.2250 0.2250   319.07 0.2500
  13.65   327.21 0.2250 0.2250   318.12 0.2500
  14.98   326.69 0.2250 0.2250   317.08 0.2500
  16.31   326.12 0.2250 0.2250   315.94 0.2500
  17.66   325.50 0.2250 0.2250   314.69 0.2500
  19.02   324.82 0.2250 0.2250   313.35 0.2500
  20.38   324.10 0.2250 0.2250   311.90 0.2500
  21.76   323.32 0.2250 0.2250   310.34 0.2500
  23.16   322.49 0.2250 0.2250   308.68 0.2500
  24.57   321.60 0.2250 0.2250   306.90 0.2500
  25.99   320.66 0.2250 0.2250   305.02 0.2500
  27.43   319.66 0.2250 0.2250   303.02 0.2500
  28.89   318.60 0.2250 0.2250   300.90 0.2500
  30.37   317.48 0.2250 0.2250   298.66 0.2500
  31.88   316.30 0.2250 0.2250   296.30 0.2500
  33.41   315.05 0.2250 0.2250   293.80 0.2500
  34.96   313.74 0.2250 0.2250   291.18 0.2500
  36.55   312.36 0.2250 0.2250   288.42 0.2500
  38.17   310.90 0.2250 0.2250   285.51 0.2500
  39.83   309.38 0.2250 0.2250   282.45 0.2500
  41.52   307.77 0.2250 0.2250   279.24 0.2500
  43.27   306.08 0.2250 0.2250   275.86 0.2500
  45.06   304.30 0.2250 0.2250   272.31 0.2500
  46.91   302.43 0.2250 0.2250   268.57 0.2500
  48.83   300.46 0.2250 0.2250   264.63 0.2500
  50.83   298.39 0.2250 0.2250   260.47 0.2500
  52.92   296.19 0.2250 0.2250   256.08 0.2500
  55.11   293.87 0.2250 0.2250   251.43 0.2500
  57.43   291.40 0.2250 0.2250   246.49 0.2500
  59.90   288.76 0.2250 0.2250   241.21 0.2500
  62.58   285.92 0.2250 0.2250   235.53 0.2500
  65.52   282.83 0.2250 0.2250   229.37 0.2500
  68.84   279.42 0.2250 0.2250   222.55 0.2500
  72.76   275.53 0.2250 0.2250   214.77 0.2500
  77.83   270.73 0.2250 0.2250   205.15 0.2500
  90.00   262.22 0.6000 0.6000   188.15 0.2500
