# Name of benchmark/experiment: FILLET Experiment 1 (warm start)
# Case number: 169
# Instellation (S_earth): 1.225
# XCO2 (ppm): 280.0
# Obliquity (degrees): 80.0
# Mode: seasonal
#
# Columns of data (annually averaged for last orbit)
# Lat Tsurf Asurf ATOA OLR Fland
 -90.00   348.42 0.2250 0.2250   360.55 0.2500
 -77.83   346.83 0.2250 0.2250   357.37 0.2500
 -72.76   345.63 0.2250 0.2250   354.96 0.2500
 -68.84   344.50 0.2250 0.2250   352.69 0.2500
 -65.52   343.40 0.2250 0.2250   350.51 0.2500
 -62.58   342.34 0.2250 0.2250   348.38 0.2500
 -59.90   341.31 0.2250 0.2250   346.33 0.2500
 -57.43   340.32 0.2250 0.2250   344.34 0.2500
 -55.11   339.35 0.2250 0.2250   342.41 0.2500
 -52.92   338.41 0.2250 0.2250   340.53 0.2500
 -50.83   337.49 0.2250 0.2250   338.69 0.2500
 -48.83   336.59 0.2250 0.2250   336.89 0.2500
 -46.91   335.71 0.2250 0.2250   335.13 0.2500
 -45.06   334.85 0.2250 0.2250   333.40 0.2500
 -43.27   334.00 0.2250 0.2250   331.71 0.2500
 -41.52   333.17 0.2250 0.2250   330.05 0.2500
 -39.83   332.36 0.2250 0.2250   328.43 0.2500
 -38.17   331.57 0.2250 0.2250   326.85 0.2500
 -36.55   330.80 0.2250 0.2250   325.30 0.2500
 -34.96   330.05 0.2250 0.2250   323.80 0.2500
 -33.41   329.32 0.2250 0.2250   322.35 0.2500
 -31.88   328.62 0.2250 0.2250   320.94 0.2500
 -30.37   327.94 0.2250 0.2250   319.58 0.2500
 -28.89   327.29 0.2250 0.2250   318.28 0.2500
 -27.43   326.66 0.2250 0.2250   317.03 0.2500
 -25.99   326.07 0.2250 0.2250   315.83 0.2500
 -24.57   325.50 0.2250 0.2250   314.69 0.2500
 -23.16   324.95 0.2250 0.2250   313.61 0.2500
 -21.76   324.44 0.2250 0.2250   312.57 0.2500
 -20.38   323.95 0.2250 0.2250   311.59 0.2500
 -19.02   323.48 0.2250 0.2250   310.67 0.2500
 -17.66   323.05 0.2250 0.2250   309.80 0.2500
 -16.31   322.64 0.2250 0.2250   308.98 0.2500
 -14.98   322.26 0.2250 0.2250   308.23 0.2500
 -13.65   321.91 0.2250 0.2250   307.52 0.2500
 -12.33   321.59 0.2250 0.2250   306.88 0.2500
 -11.01   321.30 0.2250 0.2250   306.30 0.2500
  -9.70   321.04 0.2250 0.2250   305.77 0.2500
  -8.40   320.81 0.2250 0.2250   305.32 0.2500
  -7.10   320.61 0.2250 0.2250   304.92 0.2500
  -5.80   320.45 0.2250 0.2250   304.59 0.2500
  -4.51   320.32 0.2250 0.2250   304.33 0.2500
  -3.22   320.22 0.2250 0.2250   304.13 0.2500
  -1.93   320.15 0.2250 0.2250   304.00 0.2500
  -0.64   320.12 0.2250 0.2250   303.94 0.2500
   0.64   320.12 0.2250 0.2250   303.94 0.2500
   1.93   320.15 0.2250 0.2250   304.00 0.2500
   3.22   320.22 0.2250 0.2250   304.13 0.2500
   4.51   320.32 0.2250 0.2250   304.33 0.2500
   5.80   320.45 0.2250 0.2250   304.59 0.2500
   7.10   320.61 0.2250 0.2250   304.92 0.2500
   8.40   320.81 0.2250 0.2250   305.32 0.2500
   9.70   321.04 0.2250 0.2250   305.77 0.2500
  11.01   321.30 0.2250 0.2250   306.30 0.2500
  12.33   321.59 0.2250 0.2250   306.88 0.2500
  13.65   321.91 0.2250 0.2250   307.52 0.2500
  14.98   322.26 0.2250 0.2250   308.23 0.2500
  16.31   322.64 0.2250 0.2250   308.98 0.2500
  17.66   323.05 0.2250 0.2250   309.80 0.2500
  19.02   323.48 0.2250 0.2250   310.67 0.2500
  20.38   323.95 0.2250 0.2250   311.59 0.2500
  21.76   324.44 0.2250 0.2250   312.57 0.2500
  23.16   324.95 0.2250 0.2250   313.61 0.2500
  24.57   325.50 0.2250 0.2250   314.69 0.2500
  25.99   326.07 0.2250 0.2250   315.83 0.2500
  27.43   326.66 0.2250 0.2250   317.03 0.2500
  28.89   327.29 0.2250 0.2250   318.28 0.2500
  30.37   327.94 0.2250 0.2250   319.58 0.2500
  31.88   328.62 0.2250 0.2250   320.94 0.2500
  33.41   329.32 0.2250 0.2250   322.35 0.2500
  34.96   330.05 0.2250 0.2250   323.80 0.2500
  36.55   330.80 0.2250 0.2250   325.30 0.2500
  38.17   331.57 0.2250 0.2250   326.85 0.2500
  39.83   332.36 0.2250 0.2250   328.43 0.2500
  41.52   333.17 0.2250 0.2250   330.05 0.2500
  43.27   334.00 0.2250 0.2250   331.71 0.2500
  45.06   334.85 0.2250 0.2250   333.40 0.2500
  46.91   335.71 0.2250 0.2250   335.13 0.2500
  48.83   336.59 0.2250 0.2250   336.89 0.2500
  50.83   337.49 0.2250 0.2250   338.69 0.2500
  52.92   338.41 0.2250 0.2250   340.53 0.2500
  55.11   339.35 0.2250 0.2250   342.41 0.2500
  57.43   340.32 0.2250 0.2250   344.34 0.2500
  59.90   341.31 0.2250 0.2250   346.33 0.2500
  62.58   342.34 0.2250 0.2250   348.38 0.2500
  65.52   343.40 0.2250 0.2250   350.51 0.2500
  68.84   344.50 0.2250 0.2250   352.69 0.2500
  72.76   345.63 0.2250 0.2250   354.96 0.2500
  77.83   346.83 0.2250 0.2250   357.37 0.2500
  90.00   348.42 0.2250 0.2250   360.55 0.2500
