# Name of benchmark/experiment: FILLET Experiment 1 (warm start)
# Case number: 107
# Instellation (S_earth): 1.1
# XCO2 (ppm): 280.0
# Obliquity (degrees): 50.0
# Mode: seasonal
#
# Columns of data (annually averaged for last orbit)
# Lat Tsurf Asurf ATOA OLR Fland
 -90.00   309.67 0.2250 0.2250   283.03 0.2500
 -77.83   309.96 0.2250 0.2250   283.63 0.2500
 -72.76   310.07 0.2250 0.2250   283.84 0.2500
 -68.84   310.15 0.2250 0.2250   284.00 0.2500
 -65.52   310.24 0.2250 0.2250   284.17 0.2500
 -62.58   310.33 0.2250 0.2250   284.37 0.2500
 -59.90   310.44 0.2250 0.2250   284.58 0.2500
 -57.43   310.56 0.2250 0.2250   284.82 0.2500
 -55.11   310.68 0.2250 0.2250   285.06 0.2500
 -52.92   310.81 0.2250 0.2250   285.32 0.2500
 -50.83   310.95 0.2250 0.2250   285.60 0.2500
 -48.83   311.10 0.2250 0.2250   285.89 0.2500
 -46.91   311.25 0.2250 0.2250   286.21 0.2500
 -45.06   311.42 0.2250 0.2250   286.54 0.2500
 -43.27   311.60 0.2250 0.2250   286.90 0.2500
 -41.52   311.78 0.2250 0.2250   287.27 0.2500
 -39.83   311.98 0.2250 0.2250   287.65 0.2500
 -38.17   312.18 0.2250 0.2250   288.05 0.2500
 -36.55   312.38 0.2250 0.2250   288.46 0.2500
 -34.96   312.59 0.2250 0.2250   288.87 0.2500
 -33.41   312.80 0.2250 0.2250   289.29 0.2500
 -31.88   313.00 0.2250 0.2250   289.71 0.2500
 -30.37   313.21 0.2250 0.2250   290.12 0.2500
 -28.89   313.41 0.2250 0.2250   290.53 0.2500
 -27.43   313.61 0.2250 0.2250   290.93 0.2500
 -25.99   313.81 0.2250 0.2250   291.32 0.2500
 -24.57   314.00 0.2250 0.2250   291.70 0.2500
 -23.16   314.18 0.2250 0.2250   292.07 0.2500
 -21.76   314.36 0.2250 0.2250   292.42 0.2500
 -20.38   314.53 0.2250 0.2250   292.76 0.2500
 -19.02   314.69 0.2250 0.2250   293.08 0.2500
 -17.66   314.84 0.2250 0.2250   293.38 0.2500
 -16.31   314.98 0.2250 0.2250   293.66 0.2500
 -14.98   315.12 0.2250 0.2250   293.93 0.2500
 -13.65   315.24 0.2250 0.2250   294.18 0.2500
 -12.33   315.35 0.2250 0.2250   294.40 0.2500
 -11.01   315.45 0.2250 0.2250   294.60 0.2500
  -9.70   315.54 0.2250 0.2250   294.79 0.2500
  -8.40   315.62 0.2250 0.2250   294.95 0.2500
  -7.10   315.69 0.2250 0.2250   295.08 0.2500
  -5.80   315.75 0.2250 0.2250   295.20 0.2500
  -4.51   315.80 0.2250 0.2250   295.29 0.2500
  -3.22   315.83 0.2250 0.2250   295.36 0.2500
  -1.93   315.85 0.2250 0.2250   295.41 0.2500
  -0.64   315.87 0.2250 0.2250   295.43 0.2500
   0.64   315.87 0.2250 0.2250   295.43 0.2500
   1.93   315.85 0.2250 0.2250   295.41 0.2500
   3.22   315.83 0.2250 0.2250   295.36 0.2500
   4.51   315.80 0.2250 0.2250   295.29 0.2500
   5.80   315.75 0.2250 0.2250   295.20 0.2500
   7.10   315.69 0.2250 0.2250   295.08 0.2500
   8.40   315.62 0.2250 0.2250   294.95 0.2500
   9.70   315.54 0.2250 0.2250   294.79 0.2500
  11.01   315.45 0.2250 0.2250   294.60 0.2500
  12.33   315.35 0.2250 0.2250   294.40 0.2500
  13.65   315.24 0.2250 0.2250   294.18 0.2500
  14.98   315.12 0.2250 0.2250   293.93 0.2500
  16.31   314.98 0.2250 0.2250   293.66 0.2500
  17.66   314.84 0.2250 0.2250   293.38 0.2500
  19.02   314.69 0.2250 0.2250   293.08 0.2500
  20.38   314.53 0.2250 0.2250   292.76 0.2500
  21.76   314.36 0.2250 0.2250   292.42 0.2500
  23.16   314.18 0.2250 0.2250   292.07 0.2500
  24.57   314.00 0.2250 0.2250   291.70 0.2500
  25.99   313.81 0.2250 0.2250   291.32 0.2500
  27.43   313.61 0.2250 0.2250   290.93 0.2500
  28.89   313.41 0.2250 0.2250   290.53 0.2500
  30.37   313.21 0.2250 0.2250   290.12 0.2500
  31.88   313.00 0.2250 0.2250   289.71 0.2500
  33.41   312.80 0.2250 0.2250   289.29 0.2500
  34.96   312.59 0.2250 0.2250   288.87 0.2500
  36.55   312.38 0.2250 0.2250   288.46 0.2500
  38.17   312.18 0.2250 0.2250   288.05 0.2500
  39.83   311.98 0.2250 0.2250   287.65 0.2500
  41.52   311.78 0.2250 0.2250   287.27 0.2500
  43.27   311.60 0.2250 0.2250   286.90 0.2500
  45.06   311.42 0.2250 0.2250   286.54 0.2500
  46.91   311.25 0.2250 0.2250   286.21 0.2500
  48.83   311.10 0.2250 0.2250   285.89 0.2500
  50.83   310.95 0.2250 0.2250   285.60 0.2500
  52.92   310.81 0.2250 0.2250   285.32 0.2500
  55.11   310.68 0.2250 0.2250   285.06 0.2500
  57.43   310.56 0.2250 0.2250   284.82 0.2500
  59.90   310.44 0.2250 0.2250   284.58 0.2500
  62.58   310.33 0.2250 0.2250   284.37 0.2500
  65.52   310.24 0.2250 0.2250   284.17 0.2500
  68.84   310.15 0.2250 0.2250   284.00 0.2500
  72.76   310.07 0.2250 0.2250   283.84 0.2500
  77.83   309.96 0.2250 0.2250   283.63 0.2500
  90.00   309.67 0.2250 0.2250   283.03 0.2500
