# Name of benchmark/experiment: FILLET Experiment 1 (warm start)
# Case number: 33
# Instellation (S_earth): 1.15
# XCO2 (ppm): 280.0
# Obliquity (degrees): 10.0
# Mode: seasonal
#
# Columns of data (annually averaged for last orbit)
# Lat Tsurf Asurf ATOA OLR Fland
 -90.00   273.03 0.2250 0.2250   209.76 0.2500
 -77.83   279.55 0.2250 0.2250   222.79 0.2500
 -72.76   283.70 0.2250 0.2250   231.09 0.2500
 -68.84   287.21 0.2250 0.2250   238.13 0.2500
 -65.52   290.38 0.2250 0.2250   244.45 0.2500
 -62.58   293.28 0.2250 0.2250   250.27 0.2500
 -59.90   295.99 0.2250 0.2250   255.68 0.2500
 -57.43   298.53 0.2250 0.2250   260.76 0.2500
 -55.11   300.92 0.2250 0.2250   265.55 0.2500
 -52.92   303.19 0.2250 0.2250   270.07 0.2500
 -50.83   305.33 0.2250 0.2250   274.36 0.2500
 -48.83   307.37 0.2250 0.2250   278.44 0.2500
 -46.91   309.30 0.2250 0.2250   282.31 0.2500
 -45.06   311.15 0.2250 0.2250   286.00 0.2500
 -43.27   312.90 0.2250 0.2250   289.51 0.2500
 -41.52   314.58 0.2250 0.2250   292.85 0.2500
 -39.83   316.17 0.2250 0.2250   296.04 0.2500
 -38.17   317.69 0.2250 0.2250   299.08 0.2500
 -36.55   319.13 0.2250 0.2250   301.97 0.2500
 -34.96   320.51 0.2250 0.2250   304.72 0.2500
 -33.41   321.82 0.2250 0.2250   307.33 0.2500
 -31.88   323.06 0.2250 0.2250   309.82 0.2500
 -30.37   324.24 0.2250 0.2250   312.18 0.2500
 -28.89   325.36 0.2250 0.2250   314.42 0.2500
 -27.43   326.42 0.2250 0.2250   316.54 0.2500
 -25.99   327.42 0.2250 0.2250   318.54 0.2500
 -24.57   328.36 0.2250 0.2250   320.43 0.2500
 -23.16   329.25 0.2250 0.2250   322.20 0.2500
 -21.76   330.09 0.2250 0.2250   323.87 0.2500
 -20.38   330.87 0.2250 0.2250   325.43 0.2500
 -19.02   331.59 0.2250 0.2250   326.89 0.2500
 -17.66   332.27 0.2250 0.2250   328.24 0.2500
 -16.31   332.89 0.2250 0.2250   329.49 0.2500
 -14.98   333.47 0.2250 0.2250   330.64 0.2500
 -13.65   333.99 0.2250 0.2250   331.68 0.2500
 -12.33   334.47 0.2250 0.2250   332.63 0.2500
 -11.01   334.89 0.2250 0.2250   333.49 0.2500
  -9.70   335.27 0.2250 0.2250   334.24 0.2500
  -8.40   335.60 0.2250 0.2250   334.90 0.2500
  -7.10   335.88 0.2250 0.2250   335.47 0.2500
  -5.80   336.12 0.2250 0.2250   335.94 0.2500
  -4.51   336.31 0.2250 0.2250   336.31 0.2500
  -3.22   336.45 0.2250 0.2250   336.59 0.2500
  -1.93   336.54 0.2250 0.2250   336.78 0.2500
  -0.64   336.59 0.2250 0.2250   336.87 0.2500
   0.64   336.59 0.2250 0.2250   336.87 0.2500
   1.93   336.54 0.2250 0.2250   336.78 0.2500
   3.22   336.45 0.2250 0.2250   336.59 0.2500
   4.51   336.31 0.2250 0.2250   336.31 0.2500
   5.80   336.12 0.2250 0.2250   335.94 0.2500
   7.10   335.88 0.2250 0.2250   335.47 0.2500
   8.40   335.60 0.2250 0.2250   334.90 0.2500
   9.70   335.27 0.2250 0.2250   334.24 0.2500
  11.01   334.89 0.2250 0.2250   333.49 0.2500
  12.33   334.47 0.2250 0.2250   332.63 0.2500
  13.65   333.99 0.2250 0.2250   331.68 0.2500
  14.98   333.47 0.2250 0.2250   330.64 0.2500
  16.31   332.89 0.2250 0.2250   329.49 0.2500
  17.66   332.27 0.2250 0.2250   328.24 0.2500
  19.02   331.59 0.2250 0.2250   326.89 0.2500
  20.38   330.87 0.2250 0.2250   325.43 0.2500
  21.76   330.09 0.2250 0.2250   323.87 0.2500
  23.16   329.25 0.2250 0.2250   322.20 0.2500
  24.57   328.36 0.2250 0.2250   320.43 0.2500
  25.99   327.42 0.2250 0.2250   318.54 0.2500
  27.43   326.42 0.2250 0.2250   316.54 0.2500
  28.89   325.36 0.2250 0.2250   314.42 0.2500
  30.37   324.24 0.2250 0.2250   312.18 0.2500
  31.88   323.06 0.2250 0.2250   309.82 0.2500
  33.41   321.82 0.2250 0.2250   307.33 0.2500
  34.96   320.51 0.2250 0.2250   304.72 0.2500
  36.55   319.13 0.2250 0.2250   301.97 0.2500
  38.17   317.69 0.2250 0.2250   299.08 0.2500
  39.83   316.17 0.2250 0.2250   296.04 0.2500
  41.52   314.58 0.2250 0.2250   292.85 0.2500
  43.27   312.90 0.2250 0.2250   289.51 0.2500
  45.06   311.15 0.2250 0.2250   286.00 0.2500
  46.91   309.30 0.2250 0.2250   282.31 0.2500
  48.83   307.37 0.2250 0.2250   278.44 0.2500
  50.83   305.33 0.2250 0.2250   274.36 0.2500
  52.92   303.19 0.2250 0.2250   270.07 0.2500
  55.11   300.92 0.2250 0.2250   265.55 0.2500
  57.43   298.53 0.2250 0.2250   260.76 0.2500
  59.90   295.99 0.2250 0.2250   255.68 0.2500
  62.58   293.28 0.2250 0.2250   250.27 0.2500
  65.52   290.38 0.2250 0.2250   244.45 0.2500
  68.84   287.21 0.2250 0.2250   238.13 0.2500
  72.76   283.70 0.2250 0.2250   231.09 0.2500
  77.83   279.55 0.2250 0.2250   222.79 0.2500
  90.00   273.03 0.2250 0.2250   209.76 0.2500
