# Name of benchmark/experiment: FILLET Experiment 1 (warm start)
# Case number: 46
# Instellation (S_earth): 1.0
# XCO2 (ppm): 280.0
# Obliquity (degrees): 20.0
# Mode: seasonal
#
# Columns of data (annually averaged for last orbit)
# Lat Tsurf Asurf ATOA OLR Fland
 -90.00   267.35 0.2250 0.2250   198.39 0.2500
 -77.83   271.24 0.2250 0.2250   206.19 0.2500
 -72.76   273.82 0.2250 0.2250   211.34 0.2500
 -68.84   276.11 0.2250 0.2250   215.91 0.2500
 -65.52   278.24 0.2250 0.2250   220.18 0.2500
 -62.58   280.25 0.2250 0.2250   224.20 0.2500
 -59.90   282.16 0.2250 0.2250   228.02 0.2500
 -57.43   283.98 0.2250 0.2250   231.66 0.2500
 -55.11   285.72 0.2250 0.2250   235.13 0.2500
 -52.92   287.37 0.2250 0.2250   238.44 0.2500
 -50.83   288.95 0.2250 0.2250   241.61 0.2500
 -48.83   290.47 0.2250 0.2250   244.64 0.2500
 -46.91   291.92 0.2250 0.2250   247.53 0.2500
 -45.06   293.30 0.2250 0.2250   250.30 0.2500
 -43.27   294.62 0.2250 0.2250   252.95 0.2500
 -41.52   295.89 0.2250 0.2250   255.48 0.2500
 -39.83   297.10 0.2250 0.2250   257.90 0.2500
 -38.17   298.26 0.2250 0.2250   260.21 0.2500
 -36.55   299.36 0.2250 0.2250   262.42 0.2500
 -34.96   300.41 0.2250 0.2250   264.53 0.2500
 -33.41   301.42 0.2250 0.2250   266.54 0.2500
 -31.88   302.37 0.2250 0.2250   268.45 0.2500
 -30.37   303.28 0.2250 0.2250   270.27 0.2500
 -28.89   304.15 0.2250 0.2250   272.00 0.2500
 -27.43   304.97 0.2250 0.2250   273.63 0.2500
 -25.99   305.74 0.2250 0.2250   275.18 0.2500
 -24.57   306.47 0.2250 0.2250   276.65 0.2500
 -23.16   307.16 0.2250 0.2250   278.02 0.2500
 -21.76   307.81 0.2250 0.2250   279.32 0.2500
 -20.38   308.42 0.2250 0.2250   280.53 0.2500
 -19.02   308.98 0.2250 0.2250   281.67 0.2500
 -17.66   309.51 0.2250 0.2250   282.72 0.2500
 -16.31   310.00 0.2250 0.2250   283.69 0.2500
 -14.98   310.44 0.2250 0.2250   284.59 0.2500
 -13.65   310.85 0.2250 0.2250   285.41 0.2500
 -12.33   311.22 0.2250 0.2250   286.15 0.2500
 -11.01   311.56 0.2250 0.2250   286.81 0.2500
  -9.70   311.85 0.2250 0.2250   287.40 0.2500
  -8.40   312.11 0.2250 0.2250   287.92 0.2500
  -7.10   312.33 0.2250 0.2250   288.36 0.2500
  -5.80   312.51 0.2250 0.2250   288.73 0.2500
  -4.51   312.66 0.2250 0.2250   289.02 0.2500
  -3.22   312.77 0.2250 0.2250   289.24 0.2500
  -1.93   312.84 0.2250 0.2250   289.39 0.2500
  -0.64   312.88 0.2250 0.2250   289.46 0.2500
   0.64   312.88 0.2250 0.2250   289.46 0.2500
   1.93   312.84 0.2250 0.2250   289.39 0.2500
   3.22   312.77 0.2250 0.2250   289.24 0.2500
   4.51   312.66 0.2250 0.2250   289.02 0.2500
   5.80   312.51 0.2250 0.2250   288.73 0.2500
   7.10   312.33 0.2250 0.2250   288.36 0.2500
   8.40   312.11 0.2250 0.2250   287.92 0.2500
   9.70   311.85 0.2250 0.2250   287.40 0.2500
  11.01   311.56 0.2250 0.2250   286.81 0.2500
  12.33   311.22 0.2250 0.2250   286.15 0.2500
  13.65   310.85 0.2250 0.2250   285.41 0.2500
  14.98   310.44 0.2250 0.2250   284.59 0.2500
  16.31   310.00 0.2250 0.2250   283.69 0.2500
  17.66   309.51 0.2250 0.2250   282.72 0.2500
  19.02   308.98 0.2250 0.2250   281.67 0.2500
  20.38   308.42 0.2250 0.2250   280.53 0.2500
  21.76   307.81 0.2250 0.2250   279.32 0.2500
  23.16   307.16 0.2250 0.2250   278.02 0.2500
  24.57   306.47 0.2250 0.2250   276.65 0.2500
  25.99   305.74 0.2250 0.2250   275.18 0.2500
  27.43   304.97 0.2250 0.2250   273.63 0.2500
  28.89   304.15 0.2250 0.2250   272.00 0.2500
  30.37   303.28 0.2250 0.2250   270.27 0.2500
  31.88   302.37 0.2250 0.2250   268.45 0.2500
  33.41   301.42 0.2250 0.2250   266.54 0.2500
  34.96   300.41 0.2250 0.2250   264.53 0.2500
  36.55   299.36 0.2250 0.2250   262.42 0.2500
  38.17   298.26 0.2250 0.2250   260.21 0.2500
  39.83   297.10 0.2250 0.2250   257.90 0.2500
  41.52   295.89 0.2250 0.2250   255.48 0.2500
  43.27   294.62 0.2250 0.2250   252.95 0.2500
  45.06   293.30 0.2250 0.2250   250.30 0.2500
  46.91   291.92 0.2250 0.2250   247.53 0.2500
  48.83   290.47 0.2250 0.2250   244.64 0.2500
  50.83   288.95 0.2250 0.2250   241.61 0.2500
  52.92   287.37 0.2250 0.2250   238.44 0.2500
  55.11   285.72 0.2250 0.2250   235.13 0.2500
  57.43   283.98 0.2250 0.2250   231.66 0.2500
  59.90   282.16 0.2250 0.2250   228.02 0.2500
  62.58   280.25 0.2250 0.2250   224.20 0.2500
  65.52   278.24 0.2250 0.2250   220.18 0.2500
  68.84   276.11 0.2250 0.2250   215.91 0.2500
  72.76   273.82 0.2250 0.2250   211.34 0.2500
  77.83   271.24 0.2250 0.2250   206.19 0.2500
  90.00   267.35 0.2250 0.2250   198.39 0.2500
