# Name of benchmark/experiment: FILLET Experiment 1 (warm start)
# Case number: 38
# Instellation (S_earth): 0.8
# XCO2 (ppm): 280.0
# Obliquity (degrees): 20.0
# Mode: seasonal
#
# Columns of data (annually averaged for last orbit)
# Lat Tsurf Asurf ATOA OLR Fland
 -90.00   209.11 0.6000 0.6000    81.92 0.2500
 -77.83   210.72 0.6000 0.6000    85.14 0.2500
 -72.76   211.78 0.6000 0.6000    87.26 0.2500
 -68.84   212.73 0.6000 0.6000    89.15 0.2500
 -65.52   213.61 0.6000 0.6000    90.91 0.2500
 -62.58   214.44 0.6000 0.6000    92.57 0.2500
 -59.90   215.23 0.6000 0.6000    94.15 0.2500
 -57.43   215.98 0.6000 0.6000    95.65 0.2500
 -55.11   216.69 0.6000 0.6000    97.09 0.2500
 -52.92   217.38 0.6000 0.6000    98.46 0.2500
 -50.83   218.03 0.6000 0.6000    99.76 0.2500
 -48.83   218.66 0.6000 0.6000   101.01 0.2500
 -46.91   219.25 0.6000 0.6000   102.21 0.2500
 -45.06   219.83 0.6000 0.6000   103.35 0.2500
 -43.27   220.37 0.6000 0.6000   104.44 0.2500
 -41.52   220.89 0.6000 0.6000   105.49 0.2500
 -39.83   221.39 0.6000 0.6000   106.49 0.2500
 -38.17   221.87 0.6000 0.6000   107.44 0.2500
 -36.55   222.33 0.6000 0.6000   108.36 0.2500
 -34.96   222.76 0.6000 0.6000   109.23 0.2500
 -33.41   223.18 0.6000 0.6000   110.05 0.2500
 -31.88   223.57 0.6000 0.6000   110.84 0.2500
 -30.37   223.95 0.6000 0.6000   111.60 0.2500
 -28.89   224.30 0.6000 0.6000   112.31 0.2500
 -27.43   224.64 0.6000 0.6000   112.98 0.2500
 -25.99   224.96 0.6000 0.6000   113.62 0.2500
 -24.57   225.26 0.6000 0.6000   114.23 0.2500
 -23.16   225.55 0.6000 0.6000   114.80 0.2500
 -21.76   225.82 0.6000 0.6000   115.33 0.2500
 -20.38   226.07 0.6000 0.6000   115.83 0.2500
 -19.02   226.30 0.6000 0.6000   116.30 0.2500
 -17.66   226.52 0.6000 0.6000   116.74 0.2500
 -16.31   226.72 0.6000 0.6000   117.14 0.2500
 -14.98   226.90 0.6000 0.6000   117.51 0.2500
 -13.65   227.07 0.6000 0.6000   117.85 0.2500
 -12.33   227.23 0.6000 0.6000   118.15 0.2500
 -11.01   227.36 0.6000 0.6000   118.43 0.2500
  -9.70   227.49 0.6000 0.6000   118.67 0.2500
  -8.40   227.59 0.6000 0.6000   118.88 0.2500
  -7.10   227.68 0.6000 0.6000   119.07 0.2500
  -5.80   227.76 0.6000 0.6000   119.22 0.2500
  -4.51   227.82 0.6000 0.6000   119.34 0.2500
  -3.22   227.86 0.6000 0.6000   119.43 0.2500
  -1.93   227.90 0.6000 0.6000   119.49 0.2500
  -0.64   227.91 0.6000 0.6000   119.52 0.2500
   0.64   227.91 0.6000 0.6000   119.52 0.2500
   1.93   227.90 0.6000 0.6000   119.49 0.2500
   3.22   227.86 0.6000 0.6000   119.43 0.2500
   4.51   227.82 0.6000 0.6000   119.34 0.2500
   5.80   227.76 0.6000 0.6000   119.22 0.2500
   7.10   227.68 0.6000 0.6000   119.07 0.2500
   8.40   227.59 0.6000 0.6000   118.88 0.2500
   9.70   227.49 0.6000 0.6000   118.67 0.2500
  11.01   227.36 0.6000 0.6000   118.43 0.2500
  12.33   227.23 0.6000 0.6000   118.15 0.2500
  13.65   227.07 0.6000 0.6000   117.85 0.2500
  14.98   226.90 0.6000 0.6000   117.51 0.2500
  16.31   226.72 0.6000 0.6000   117.14 0.2500
  17.66   226.52 0.6000 0.6000   116.74 0.2500
  19.02   226.30 0.6000 0.6000   116.30 0.2500
  20.38   226.07 0.6000 0.6000   115.83 0.2500
  21.76   225.82 0.6000 0.6000   115.33 0.2500
  23.16   225.55 0.6000 0.6000   114.80 0.2500
  24.57   225.26 0.6000 0.6000   114.23 0.2500
  25.99   224.96 0.6000 0.6000   113.62 0.2500
  27.43   224.64 0.6000 0.6000   112.98 0.2500
  28.89   224.30 0.6000 0.6000   112.31 0.2500
  30.37   223.95 0.6000 0.6000   111.60 0.2500
  31.88   223.57 0.6000 0.6000   110.84 0.2500
  33.41   223.18 0.6000 0.6000   110.05 0.2500
  34.96   222.76 0.6000 0.6000   109.23 0.2500
  36.55   222.33 0.6000 0.6000   108.36 0.2500
  38.17   221.87 0.6000 0.6000   107.44 0.2500
  39.83   221.39 0.6000 0.6000   106.49 0.2500
  41.52   220.89 0.6000 0.6000   105.49 0.2500
  43.27   220.37 0.6000 0.6000   104.44 0.2500
  45.06   219.83 0.6000 0.6000   103.35 0.2500
  46.91   219.25 0.6000 0.6000   102.21 0.2500
  48.83   218.66 0.6000 0.6000   101.01 0.2500
  50.83   218.03 0.6000 0.6000    99.76 0.2500
  52.92   217.38 0.6000 0.6000    98.46 0.2500
  55.11   216.69 0.6000 0.6000    97.09 0.2500
  57.43   215.98 0.6000 0.6000    95.65 0.2500
  59.90   215.23 0.6000 0.6000    94.15 0.2500
  62.58   214.44 0.6000 0.6000    92.57 0.2500
  65.52   213.61 0.6000 0.6000    90.91 0.2500
  68.84   212.73 0.6000 0.6000    89.15 0.2500
  72.76   211.78 0.6000 0.6000    87.26 0.2500
  77.83   210.72 0.6000 0.6000    85.14 0.2500
  90.00   209.11 0.6000 0.6000    81.92 0.2500
