# Name of benchmark/experiment: FILLET Experiment 1 (warm start)
# Case number: 10
# Instellation (S_earth): 1.05
# XCO2 (ppm): 280.0
# Obliquity (degrees): 0.0
# Mode: seasonal
#
# Columns of data (annually averaged for last orbit)
# Lat Tsurf Asurf ATOA OLR Fland
 -90.00   257.95 0.6000 0.6000   179.59 0.2500
 -77.83   266.06 0.2250 0.2250   195.83 0.2500
 -72.76   270.65 0.2250 0.2250   205.00 0.2500
 -68.84   274.37 0.2250 0.2250   212.43 0.2500
 -65.52   277.62 0.2250 0.2250   218.94 0.2500
 -62.58   280.56 0.2250 0.2250   224.83 0.2500
 -59.90   283.27 0.2250 0.2250   230.25 0.2500
 -57.43   285.79 0.2250 0.2250   235.29 0.2500
 -55.11   288.15 0.2250 0.2250   240.00 0.2500
 -52.92   290.37 0.2250 0.2250   244.44 0.2500
 -50.83   292.47 0.2250 0.2250   248.64 0.2500
 -48.83   294.45 0.2250 0.2250   252.60 0.2500
 -46.91   296.33 0.2250 0.2250   256.36 0.2500
 -45.06   298.12 0.2250 0.2250   259.93 0.2500
 -43.27   299.81 0.2250 0.2250   263.32 0.2500
 -41.52   301.42 0.2250 0.2250   266.55 0.2500
 -39.83   302.96 0.2250 0.2250   269.62 0.2500
 -38.17   304.42 0.2250 0.2250   272.53 0.2500
 -36.55   305.80 0.2250 0.2250   275.31 0.2500
 -34.96   307.12 0.2250 0.2250   277.94 0.2500
 -33.41   308.37 0.2250 0.2250   280.45 0.2500
 -31.88   309.56 0.2250 0.2250   282.83 0.2500
 -30.37   310.69 0.2250 0.2250   285.08 0.2500
 -28.89   311.76 0.2250 0.2250   287.22 0.2500
 -27.43   312.77 0.2250 0.2250   289.24 0.2500
 -25.99   313.73 0.2250 0.2250   291.15 0.2500
 -24.57   314.63 0.2250 0.2250   292.95 0.2500
 -23.16   315.47 0.2250 0.2250   294.65 0.2500
 -21.76   316.27 0.2250 0.2250   296.23 0.2500
 -20.38   317.01 0.2250 0.2250   297.72 0.2500
 -19.02   317.70 0.2250 0.2250   299.10 0.2500
 -17.66   318.34 0.2250 0.2250   300.39 0.2500
 -16.31   318.94 0.2250 0.2250   301.58 0.2500
 -14.98   319.48 0.2250 0.2250   302.67 0.2500
 -13.65   319.98 0.2250 0.2250   303.66 0.2500
 -12.33   320.43 0.2250 0.2250   304.57 0.2500
 -11.01   320.84 0.2250 0.2250   305.38 0.2500
  -9.70   321.20 0.2250 0.2250   306.09 0.2500
  -8.40   321.51 0.2250 0.2250   306.72 0.2500
  -7.10   321.78 0.2250 0.2250   307.26 0.2500
  -5.80   322.00 0.2250 0.2250   307.70 0.2500
  -4.51   322.18 0.2250 0.2250   308.06 0.2500
  -3.22   322.31 0.2250 0.2250   308.32 0.2500
  -1.93   322.40 0.2250 0.2250   308.50 0.2500
  -0.64   322.45 0.2250 0.2250   308.59 0.2500
   0.64   322.45 0.2250 0.2250   308.59 0.2500
   1.93   322.40 0.2250 0.2250   308.50 0.2500
   3.22   322.31 0.2250 0.2250   308.32 0.2500
   4.51   322.18 0.2250 0.2250   308.06 0.2500
   5.80   322.00 0.2250 0.2250   307.70 0.2500
   7.10   321.78 0.2250 0.2250   307.26 0.2500
   8.40   321.51 0.2250 0.2250   306.72 0.2500
   9.70   321.20 0.2250 0.2250   306.09 0.2500
  11.01   320.84 0.2250 0.2250   305.38 0.2500
  12.33   320.43 0.2250 0.2250   304.57 0.2500
  13.65   319.98 0.2250 0.2250   303.66 0.2500
  14.98   319.48 0.2250 0.2250   302.67 0.2500
  16.31   318.94 0.2250 0.2250   301.58 0.2500
  17.66   318.34 0.2250 0.2250   300.39 0.2500
  19.02   317.70 0.2250 0.2250   299.10 0.2500
  20.38   317.01 0.2250 0.2250   297.72 0.2500
  21.76   316.27 0.2250 0.2250   296.23 0.2500
  23.16   315.47 0.2250 0.2250   294.65 0.2500
  24.57   314.63 0.2250 0.2250   292.95 0.2500
  25.99   313.73 0.2250 0.2250   291.15 0.2500
  27.43   312.77 0.2250 0.2250   289.24 0.2500
  28.89   311.76 0.2250 0.2250   287.22 0.2500
  30.37   310.69 0.2250 0.2250   285.08 0.2500
  31.88   309.56 0.2250 0.2250   282.83 0.2500
  33.41   308.37 0.2250 0.2250   280.45 0.2500
  34.96   307.12 0.2250 0.2250   277.94 0.2500
  36.55   305.80 0.2250 0.2250   275.31 0.2500
  38.17   304.42 0.2250 0.2250   272.53 0.2500
  39.83   302.96 0.2250 0.2250   269.62 0.2500
  41.52   301.42 0.2250 0.2250   266.55 0.2500
  43.27   299.81 0.2250 0.2250   263.32 0.2500
  45.06   298.12 0.2250 0.2250   259.93 0.2500
  46.91   296.33 0.2250 0.2250   256.36 0.2500
  48.83   294.45 0.2250 0.2250   252.60 0.2500
  50.83   292.47 0.2250 0.2250   248.64 0.2500
  52.92   290.37 0.2250 0.2250   244.44 0.2500
  55.11   288.15 0.2250 0.2250   240.00 0.2500
  57.43   285.79 0.2250 0.2250   235.29 0.2500
  59.90   283.27 0.2250 0.2250   230.25 0.2500
  62.58   280.56 0.2250 0.2250   224.83 0.2500
  65.52   277.62 0.2250 0.2250   218.94 0.2500
  68.84   274.37 0.2250 0.2250   212.43 0.2500
  72.76   270.65 0.2250 0.2250   205.00 0.2500
  77.83   266.06 0.2250 0.2250   195.83 0.2500
  90.00   257.95 0.6000 0.6000   179.59 0.2500
