# Name of benchmark/experiment: FILLET Experiment 1 (warm start)
# Case number: 43
# Instellation (S_earth): 0.925
# XCO2 (ppm): 280.0
# Obliquity (degrees): 20.0
# Mode: seasonal
#
# Columns of data (annually averaged for last orbit)
# Lat Tsurf Asurf ATOA OLR Fland
 -90.00   248.23 0.6000 0.6000   160.16 0.2500
 -77.83   253.05 0.6000 0.6000   169.80 0.2500
 -72.76   256.36 0.6000 0.6000   176.43 0.2500
 -68.84   259.42 0.6000 0.6000   182.54 0.2500
 -65.52   262.39 0.4750 0.4750   188.48 0.2500
 -62.58   265.23 0.2250 0.2250   194.17 0.2500
 -59.90   267.76 0.2250 0.2250   199.21 0.2500
 -57.43   270.04 0.2250 0.2250   203.79 0.2500
 -55.11   272.14 0.2250 0.2250   207.99 0.2500
 -52.92   274.09 0.2250 0.2250   211.88 0.2500
 -50.83   275.91 0.2250 0.2250   215.51 0.2500
 -48.83   277.61 0.2250 0.2250   218.92 0.2500
 -46.91   279.21 0.2250 0.2250   222.13 0.2500
 -45.06   280.73 0.2250 0.2250   225.15 0.2500
 -43.27   282.16 0.2250 0.2250   228.01 0.2500
 -41.52   283.51 0.2250 0.2250   230.72 0.2500
 -39.83   284.79 0.2250 0.2250   233.29 0.2500
 -38.17   286.01 0.2250 0.2250   235.72 0.2500
 -36.55   287.16 0.2250 0.2250   238.03 0.2500
 -34.96   288.26 0.2250 0.2250   240.21 0.2500
 -33.41   289.29 0.2250 0.2250   242.29 0.2500
 -31.88   290.28 0.2250 0.2250   244.26 0.2500
 -30.37   291.21 0.2250 0.2250   246.12 0.2500
 -28.89   292.09 0.2250 0.2250   247.88 0.2500
 -27.43   292.92 0.2250 0.2250   249.54 0.2500
 -25.99   293.71 0.2250 0.2250   251.11 0.2500
 -24.57   294.45 0.2250 0.2250   252.59 0.2500
 -23.16   295.14 0.2250 0.2250   253.98 0.2500
 -21.76   295.79 0.2250 0.2250   255.29 0.2500
 -20.38   296.40 0.2250 0.2250   256.50 0.2500
 -19.02   296.97 0.2250 0.2250   257.64 0.2500
 -17.66   297.50 0.2250 0.2250   258.69 0.2500
 -16.31   297.98 0.2250 0.2250   259.66 0.2500
 -14.98   298.43 0.2250 0.2250   260.56 0.2500
 -13.65   298.84 0.2250 0.2250   261.37 0.2500
 -12.33   299.20 0.2250 0.2250   262.11 0.2500
 -11.01   299.54 0.2250 0.2250   262.77 0.2500
  -9.70   299.83 0.2250 0.2250   263.36 0.2500
  -8.40   300.08 0.2250 0.2250   263.87 0.2500
  -7.10   300.30 0.2250 0.2250   264.31 0.2500
  -5.80   300.49 0.2250 0.2250   264.67 0.2500
  -4.51   300.63 0.2250 0.2250   264.96 0.2500
  -3.22   300.74 0.2250 0.2250   265.18 0.2500
  -1.93   300.81 0.2250 0.2250   265.32 0.2500
  -0.64   300.85 0.2250 0.2250   265.40 0.2500
   0.64   300.85 0.2250 0.2250   265.40 0.2500
   1.93   300.81 0.2250 0.2250   265.32 0.2500
   3.22   300.74 0.2250 0.2250   265.18 0.2500
   4.51   300.63 0.2250 0.2250   264.96 0.2500
   5.80   300.49 0.2250 0.2250   264.67 0.2500
   7.10   300.30 0.2250 0.2250   264.31 0.2500
   8.40   300.08 0.2250 0.2250   263.87 0.2500
   9.70   299.83 0.2250 0.2250   263.36 0.2500
  11.01   299.54 0.2250 0.2250   262.77 0.2500
  12.33   299.20 0.2250 0.2250   262.11 0.2500
  13.65   298.84 0.2250 0.2250   261.37 0.2500
  14.98   298.43 0.2250 0.2250   260.56 0.2500
  16.31   297.98 0.2250 0.2250   259.66 0.2500
  17.66   297.50 0.2250 0.2250   258.69 0.2500
  19.02   296.97 0.2250 0.2250   257.64 0.2500
  20.38   296.40 0.2250 0.2250   256.50 0.2500
  21.76   295.79 0.2250 0.2250   255.29 0.2500
  23.16   295.14 0.2250 0.2250   253.98 0.2500
  24.57   294.45 0.2250 0.2250   252.59 0.2500
  25.99   293.71 0.2250 0.2250   251.11 0.2500
  27.43   292.92 0.2250 0.2250   249.54 0.2500
  28.89   292.09 0.2250 0.2250   247.88 0.2500
  30.37   291.21 0.2250 0.2250   246.12 0.2500
  31.88   290.28 0.2250 0.2250   244.26 0.2500
  33.41   289.29 0.2250 0.2250   242.29 0.2500
  34.96   288.26 0.2250 0.2250   240.21 0.2500
  36.55   287.16 0.2250 0.2250   238.03 0.2500
  38.17   286.01 0.2250 0.2250   235.72 0.2500
  39.83   284.79 0.2250 0.2250   233.29 0.2500
  41.52   283.51 0.2250 0.2250   230.72 0.2500
  43.27   282.16 0.2250 0.2250   228.01 0.2500
  45.06   280.73 0.2250 0.2250   225.15 0.2500
  46.91   279.21 0.2250 0.2250   222.13 0.2500
  48.83   277.61 0.2250 0.2250   218.92 0.2500
  50.83   275.91 0.2250 0.2250   215.51 0.2500
  52.92   274.09 0.2250 0.2250   211.88 0.2500
  55.11   272.14 0.2250 0.2250   207.99 0.2500
  57.43   270.04 0.2250 0.2250   203.79 0.2500
  59.90   267.76 0.2250 0.2250   199.21 0.2500
  62.58   265.23 0.2250 0.2250   194.17 0.2500
  65.52   262.39 0.4750 0.4750   188.48 0.2500
  68.84   259.42 0.6000 0.6000   182.54 0.2500
  72.76   256.36 0.6000 0.6000   176.43 0.2500
  77.83   253.05 0.6000 0.6000   169.80 0.2500
  90.00   248.23 0.6000 0.6000   160.16 0.2500
