# Name of benchmark/experiment: FILLET Experiment 3 (instellation bifurcation)
# Case number: 37
# Branch: cooling
# Instellation (S_earth): 1.0375
# XCO2 (ppm): 280.0
# Obliquity (degrees): 23.5
# Mode: seasonal
#
# Columns of data (annually averaged for last orbit)
# Lat Tsurf Asurf ATOA OLR Fland
 -90.00   274.45 0.2250 0.2250   212.60 0.2500
 -77.83   277.92 0.2250 0.2250   219.55 0.2500
 -72.76   280.23 0.2250 0.2250   224.15 0.2500
 -68.84   282.28 0.2250 0.2250   228.26 0.2500
 -65.52   284.21 0.2250 0.2250   232.13 0.2500
 -62.58   286.06 0.2250 0.2250   235.82 0.2500
 -59.90   287.83 0.2250 0.2250   239.37 0.2500
 -57.43   289.53 0.2250 0.2250   242.76 0.2500
 -55.11   291.16 0.2250 0.2250   246.03 0.2500
 -52.92   292.73 0.2250 0.2250   249.16 0.2500
 -50.83   294.23 0.2250 0.2250   252.16 0.2500
 -48.83   295.67 0.2250 0.2250   255.04 0.2500
 -46.91   297.05 0.2250 0.2250   257.81 0.2500
 -45.06   298.38 0.2250 0.2250   260.46 0.2500
 -43.27   299.65 0.2250 0.2250   263.01 0.2500
 -41.52   300.87 0.2250 0.2250   265.44 0.2500
 -39.83   302.04 0.2250 0.2250   267.78 0.2500
 -38.17   303.16 0.2250 0.2250   270.01 0.2500
 -36.55   304.23 0.2250 0.2250   272.15 0.2500
 -34.96   305.25 0.2250 0.2250   274.19 0.2500
 -33.41   306.22 0.2250 0.2250   276.14 0.2500
 -31.88   307.15 0.2250 0.2250   278.00 0.2500
 -30.37   308.03 0.2250 0.2250   279.77 0.2500
 -28.89   308.87 0.2250 0.2250   281.45 0.2500
 -27.43   309.67 0.2250 0.2250   283.04 0.2500
 -25.99   310.43 0.2250 0.2250   284.55 0.2500
 -24.57   311.14 0.2250 0.2250   285.98 0.2500
 -23.16   311.81 0.2250 0.2250   287.32 0.2500
 -21.76   312.44 0.2250 0.2250   288.59 0.2500
 -20.38   313.04 0.2250 0.2250   289.77 0.2500
 -19.02   313.59 0.2250 0.2250   290.88 0.2500
 -17.66   314.11 0.2250 0.2250   291.91 0.2500
 -16.31   314.58 0.2250 0.2250   292.86 0.2500
 -14.98   315.02 0.2250 0.2250   293.74 0.2500
 -13.65   315.42 0.2250 0.2250   294.54 0.2500
 -12.33   315.78 0.2250 0.2250   295.27 0.2500
 -11.01   316.11 0.2250 0.2250   295.92 0.2500
  -9.70   316.40 0.2250 0.2250   296.50 0.2500
  -8.40   316.65 0.2250 0.2250   297.00 0.2500
  -7.10   316.87 0.2250 0.2250   297.44 0.2500
  -5.80   317.05 0.2250 0.2250   297.80 0.2500
  -4.51   317.19 0.2250 0.2250   298.08 0.2500
  -3.22   317.30 0.2250 0.2250   298.30 0.2500
  -1.93   317.37 0.2250 0.2250   298.44 0.2500
  -0.64   317.41 0.2250 0.2250   298.51 0.2500
   0.64   317.41 0.2250 0.2250   298.51 0.2500
   1.93   317.37 0.2250 0.2250   298.44 0.2500
   3.22   317.30 0.2250 0.2250   298.30 0.2500
   4.51   317.19 0.2250 0.2250   298.08 0.2500
   5.80   317.05 0.2250 0.2250   297.80 0.2500
   7.10   316.87 0.2250 0.2250   297.44 0.2500
   8.40   316.65 0.2250 0.2250   297.00 0.2500
   9.70   316.40 0.2250 0.2250   296.50 0.2500
  11.01   316.11 0.2250 0.2250   295.92 0.2500
  12.33   315.78 0.2250 0.2250   295.27 0.2500
  13.65   315.42 0.2250 0.2250   294.54 0.2500
  14.98   315.02 0.2250 0.2250   293.74 0.2500
  16.31   314.58 0.2250 0.2250   292.86 0.2500
  17.66   314.11 0.2250 0.2250   291.91 0.2500
  19.02   313.59 0.2250 0.2250   290.88 0.2500
  20.38   313.04 0.2250 0.2250   289.77 0.2500
  21.76   312.44 0.2250 0.2250   288.59 0.2500
  23.16   311.81 0.2250 0.2250   287.32 0.2500
  24.57   311.14 0.2250 0.2250   285.98 0.2500
  25.99   310.43 0.2250 0.2250   284.55 0.2500
  27.43   309.67 0.2250 0.2250   283.04 0.2500
  28.89   308.87 0.2250 0.2250   281.45 0.2500
  30.37   308.03 0.2250 0.2250   279.77 0.2500
  31.88   307.15 0.2250 0.2250   278.00 0.2500
  33.41   306.22 0.2250 0.2250   276.14 0.2500
  34.96   305.25 0.2250 0.2250   274.19 0.2500
  36.55   304.23 0.2250 0.2250   272.15 0.2500
  38.17   303.16 0.2250 0.2250   270.01 0.2500
  39.83   302.04 0.2250 0.2250   267.78 0.2500
  41.52   300.87 0.2250 0.2250   265.44 0.2500
  43.27   299.65 0.2250 0.2250   263.01 0.2500
  45.06   298.38 0.2250 0.2250   260.46 0.2500
  46.91   297.05 0.2250 0.2250   257.81 0.2500
  48.83   295.67 0.2250 0.2250   255.04 0.2500
  50.83   294.23 0.2250 0.2250   252.16 0.2500
  52.92   292.73 0.2250 0.2250   249.16 0.2500
  55.11   291.16 0.2250 0.2250   246.03 0.2500
  57.43   289.53 0.2250 0.2250   242.76 0.2500
  59.90   287.83 0.2250 0.2250   239.37 0.2500
  62.58   286.06 0.2250 0.2250   235.82 0.2500
  65.52   284.21 0.2250 0.2250   232.13 0.2500
  68.84   282.28 0.2250 0.2250   228.26 0.2500
  72.76   280.23 0.2250 0.2250   224.15 0.2500
  77.83   277.92 0.2250 0.2250   219.55 0.2500
  90.00   274.45 0.2250 0.2250   212.60 0.2500
