# Name of benchmark/experiment: FILLET Experiment 3 (instellation bifurcation)
# Case number: 23
# Branch: cooling
# Instellation (S_earth): 1.2125
# XCO2 (ppm): 280.0
# Obliquity (degrees): 23.5
# Mode: seasonal
#
# Columns of data (annually averaged for last orbit)
# Lat Tsurf Asurf ATOA OLR Fland
 -90.00   292.38 0.2250 0.2250   248.45 0.2500
 -77.83   296.44 0.2250 0.2250   256.58 0.2500
 -72.76   299.13 0.2250 0.2250   261.96 0.2500
 -68.84   301.53 0.2250 0.2250   266.76 0.2500
 -65.52   303.79 0.2250 0.2250   271.28 0.2500
 -62.58   305.95 0.2250 0.2250   275.60 0.2500
 -59.90   308.02 0.2250 0.2250   279.74 0.2500
 -57.43   310.01 0.2250 0.2250   283.71 0.2500
 -55.11   311.91 0.2250 0.2250   287.52 0.2500
 -52.92   313.74 0.2250 0.2250   291.18 0.2500
 -50.83   315.50 0.2250 0.2250   294.69 0.2500
 -48.83   317.18 0.2250 0.2250   298.06 0.2500
 -46.91   318.80 0.2250 0.2250   301.30 0.2500
 -45.06   320.35 0.2250 0.2250   304.40 0.2500
 -43.27   321.83 0.2250 0.2250   307.37 0.2500
 -41.52   323.26 0.2250 0.2250   310.22 0.2500
 -39.83   324.62 0.2250 0.2250   312.95 0.2500
 -38.17   325.93 0.2250 0.2250   315.56 0.2500
 -36.55   327.18 0.2250 0.2250   318.06 0.2500
 -34.96   328.37 0.2250 0.2250   320.44 0.2500
 -33.41   329.51 0.2250 0.2250   322.72 0.2500
 -31.88   330.59 0.2250 0.2250   324.89 0.2500
 -30.37   331.63 0.2250 0.2250   326.95 0.2500
 -28.89   332.61 0.2250 0.2250   328.92 0.2500
 -27.43   333.54 0.2250 0.2250   330.78 0.2500
 -25.99   334.42 0.2250 0.2250   332.55 0.2500
 -24.57   335.26 0.2250 0.2250   334.22 0.2500
 -23.16   336.04 0.2250 0.2250   335.79 0.2500
 -21.76   336.78 0.2250 0.2250   337.27 0.2500
 -20.38   337.48 0.2250 0.2250   338.65 0.2500
 -19.02   338.12 0.2250 0.2250   339.95 0.2500
 -17.66   338.72 0.2250 0.2250   341.15 0.2500
 -16.31   339.28 0.2250 0.2250   342.26 0.2500
 -14.98   339.79 0.2250 0.2250   343.29 0.2500
 -13.65   340.26 0.2250 0.2250   344.22 0.2500
 -12.33   340.69 0.2250 0.2250   345.07 0.2500
 -11.01   341.07 0.2250 0.2250   345.83 0.2500
  -9.70   341.40 0.2250 0.2250   346.51 0.2500
  -8.40   341.70 0.2250 0.2250   347.10 0.2500
  -7.10   341.95 0.2250 0.2250   347.61 0.2500
  -5.80   342.16 0.2250 0.2250   348.03 0.2500
  -4.51   342.33 0.2250 0.2250   348.36 0.2500
  -3.22   342.46 0.2250 0.2250   348.61 0.2500
  -1.93   342.54 0.2250 0.2250   348.78 0.2500
  -0.64   342.58 0.2250 0.2250   348.87 0.2500
   0.64   342.58 0.2250 0.2250   348.87 0.2500
   1.93   342.54 0.2250 0.2250   348.78 0.2500
   3.22   342.46 0.2250 0.2250   348.61 0.2500
   4.51   342.33 0.2250 0.2250   348.36 0.2500
   5.80   342.16 0.2250 0.2250   348.03 0.2500
   7.10   341.95 0.2250 0.2250   347.61 0.2500
   8.40   341.70 0.2250 0.2250   347.10 0.2500
   9.70   341.40 0.2250 0.2250   346.51 0.2500
  11.01   341.07 0.2250 0.2250   345.83 0.2500
  12.33   340.69 0.2250 0.2250   345.07 0.2500
  13.65   340.26 0.2250 0.2250   344.22 0.2500
  14.98   339.79 0.2250 0.2250   343.29 0.2500
  16.31   339.28 0.2250 0.2250   342.26 0.2500
  17.66   338.72 0.2250 0.2250   341.15 0.2500
  19.02   338.12 0.2250 0.2250   339.95 0.2500
  20.38   337.48 0.2250 0.2250   338.65 0.2500
  21.76   336.78 0.2250 0.2250   337.27 0.2500
  23.16   336.04 0.2250 0.2250   335.79 0.2500
  24.57   335.26 0.2250 0.2250   334.22 0.2500
  25.99   334.42 0.2250 0.2250   332.55 0.2500
  27.43   333.54 0.2250 0.2250   330.78 0.2500
  28.89   332.61 0.2250 0.2250   328.92 0.2500
  30.37   331.63 0.2250 0.2250   326.96 0.2500
  31.88   330.59 0.2250 0.2250   324.89 0.2500
  33.41   329.51 0.2250 0.2250   322.72 0.2500
  34.96   328.37 0.2250 0.2250   320.44 0.2500
  36.55   327.18 0.2250 0.2250   318.06 0.2500
  38.17   325.93 0.2250 0.2250   315.56 0.2500
  39.83   324.62 0.2250 0.2250   312.95 0.2500
  41.52   323.26 0.2250 0.2250   310.22 0.2500
  43.27   321.83 0.2250 0.2250   307.37 0.2500
  45.06   320.35 0.2250 0.2250   304.40 0.2500
  46.91   318.80 0.2250 0.2250   301.30 0.2500
  48.83   317.18 0.2250 0.2250   298.06 0.2500
  50.83   315.50 0.2250 0.2250   294.69 0.2500
  52.92   313.74 0.2250 0.2250   291.18 0.2500
  55.11   311.91 0.2250 0.2250   287.52 0.2500
  57.43   310.01 0.2250 0.2250   283.71 0.2500
  59.90   308.02 0.2250 0.2250   279.74 0.2500
  62.58   305.95 0.2250 0.2250   275.60 0.2500
  65.52   303.79 0.2250 0.2250   271.28 0.2500
  68.84   301.53 0.2250 0.2250   266.76 0.2500
  72.76   299.13 0.2250 0.2250   261.96 0.2500
  77.83   296.44 0.2250 0.2250   256.58 0.2500
  90.00   292.38 0.2250 0.2250   248.45 0.2500
