# Name of benchmark/experiment: FILLET Experiment 3 (instellation bifurcation)
# Case number: 19
# Branch: cooling
# Instellation (S_earth): 1.2625
# XCO2 (ppm): 280.0
# Obliquity (degrees): 23.5
# Mode: seasonal
#
# Columns of data (annually averaged for last orbit)
# Lat Tsurf Asurf ATOA OLR Fland
 -90.00   297.50 0.2250 0.2250   258.70 0.2500
 -77.83   301.73 0.2250 0.2250   267.16 0.2500
 -72.76   304.53 0.2250 0.2250   272.77 0.2500
 -68.84   307.03 0.2250 0.2250   277.76 0.2500
 -65.52   309.38 0.2250 0.2250   282.47 0.2500
 -62.58   311.63 0.2250 0.2250   286.97 0.2500
 -59.90   313.79 0.2250 0.2250   291.28 0.2500
 -57.43   315.86 0.2250 0.2250   295.41 0.2500
 -55.11   317.84 0.2250 0.2250   299.38 0.2500
 -52.92   319.74 0.2250 0.2250   303.19 0.2500
 -50.83   321.57 0.2250 0.2250   306.85 0.2500
 -48.83   323.33 0.2250 0.2250   310.35 0.2500
 -46.91   325.01 0.2250 0.2250   313.72 0.2500
 -45.06   326.62 0.2250 0.2250   316.95 0.2500
 -43.27   328.17 0.2250 0.2250   320.04 0.2500
 -41.52   329.66 0.2250 0.2250   323.01 0.2500
 -39.83   331.08 0.2250 0.2250   325.85 0.2500
 -38.17   332.44 0.2250 0.2250   328.57 0.2500
 -36.55   333.74 0.2250 0.2250   331.17 0.2500
 -34.96   334.98 0.2250 0.2250   333.66 0.2500
 -33.41   336.16 0.2250 0.2250   336.03 0.2500
 -31.88   337.29 0.2250 0.2250   338.29 0.2500
 -30.37   338.37 0.2250 0.2250   340.44 0.2500
 -28.89   339.39 0.2250 0.2250   342.48 0.2500
 -27.43   340.36 0.2250 0.2250   344.42 0.2500
 -25.99   341.28 0.2250 0.2250   346.26 0.2500
 -24.57   342.15 0.2250 0.2250   348.00 0.2500
 -23.16   342.97 0.2250 0.2250   349.64 0.2500
 -21.76   343.74 0.2250 0.2250   351.17 0.2500
 -20.38   344.46 0.2250 0.2250   352.62 0.2500
 -19.02   345.13 0.2250 0.2250   353.96 0.2500
 -17.66   345.76 0.2250 0.2250   355.22 0.2500
 -16.31   346.34 0.2250 0.2250   356.38 0.2500
 -14.98   346.87 0.2250 0.2250   357.44 0.2500
 -13.65   347.36 0.2250 0.2250   358.42 0.2500
 -12.33   347.80 0.2250 0.2250   359.30 0.2500
 -11.01   348.20 0.2250 0.2250   360.09 0.2500
  -9.70   348.55 0.2250 0.2250   360.80 0.2500
  -8.40   348.86 0.2250 0.2250   361.41 0.2500
  -7.10   349.12 0.2250 0.2250   361.94 0.2500
  -5.80   349.34 0.2250 0.2250   362.38 0.2500
  -4.51   349.51 0.2250 0.2250   362.73 0.2500
  -3.22   349.65 0.2250 0.2250   362.99 0.2500
  -1.93   349.73 0.2250 0.2250   363.17 0.2500
  -0.64   349.78 0.2250 0.2250   363.25 0.2500
   0.64   349.78 0.2250 0.2250   363.25 0.2500
   1.93   349.73 0.2250 0.2250   363.17 0.2500
   3.22   349.65 0.2250 0.2250   362.99 0.2500
   4.51   349.51 0.2250 0.2250   362.73 0.2500
   5.80   349.34 0.2250 0.2250   362.38 0.2500
   7.10   349.12 0.2250 0.2250   361.94 0.2500
   8.40   348.86 0.2250 0.2250   361.41 0.2500
   9.70   348.55 0.2250 0.2250   360.80 0.2500
  11.01   348.20 0.2250 0.2250   360.09 0.2500
  12.33   347.80 0.2250 0.2250   359.30 0.2500
  13.65   347.36 0.2250 0.2250   358.42 0.2500
  14.98   346.87 0.2250 0.2250   357.44 0.2500
  16.31   346.34 0.2250 0.2250   356.38 0.2500
  17.66   345.76 0.2250 0.2250   355.22 0.2500
  19.02   345.13 0.2250 0.2250   353.96 0.2500
  20.38   344.46 0.2250 0.2250   352.62 0.2500
  21.76   343.74 0.2250 0.2250   351.17 0.2500
  23.16   342.97 0.2250 0.2250   349.64 0.2500
  24.57   342.15 0.2250 0.2250   348.00 0.2500
  25.99   341.28 0.2250 0.2250   346.26 0.2500
  27.43   340.36 0.2250 0.2250   344.42 0.2500
  28.89   339.39 0.2250 0.2250   342.48 0.2500
  30.37   338.37 0.2250 0.2250   340.44 0.2500
  31.88   337.29 0.2250 0.2250   338.29 0.2500
  33.41   336.16 0.2250 0.2250   336.03 0.2500
  34.96   334.98 0.2250 0.2250   333.66 0.2500
  36.55   333.74 0.2250 0.2250   331.17 0.2500
  38.17   332.44 0.2250 0.2250   328.57 0.2500
  39.83   331.08 0.2250 0.2250   325.85 0.2500
  41.52   329.66 0.2250 0.2250   323.01 0.2500
  43.27   328.17 0.2250 0.2250   320.04 0.2500
  45.06   326.62 0.2250 0.2250   316.95 0.2500
  46.91   325.01 0.2250 0.2250   313.72 0.2500
  48.83   323.33 0.2250 0.2250   310.35 0.2500
  50.83   321.57 0.2250 0.2250   306.85 0.2500
  52.92   319.74 0.2250 0.2250   303.19 0.2500
  55.11   317.84 0.2250 0.2250   299.38 0.2500
  57.43   315.86 0.2250 0.2250   295.41 0.2500
  59.90   313.79 0.2250 0.2250   291.28 0.2500
  62.58   311.63 0.2250 0.2250   286.97 0.2500
  65.52   309.38 0.2250 0.2250   282.47 0.2500
  68.84   307.03 0.2250 0.2250   277.76 0.2500
  72.76   304.53 0.2250 0.2250   272.77 0.2500
  77.83   301.73 0.2250 0.2250   267.16 0.2500
  90.00   297.50 0.2250 0.2250   258.70 0.2500
