# Name of benchmark/experiment: FILLET Experiment 3 (instellation bifurcation)
# Case number: 43
# Branch: cooling
# Instellation (S_earth): 0.9625
# XCO2 (ppm): 280.0
# Obliquity (degrees): 23.5
# Mode: seasonal
#
# Columns of data (annually averaged for last orbit)
# Lat Tsurf Asurf ATOA OLR Fland
 -90.00   263.56 0.3812 0.3812   190.83 0.2500
 -77.83   268.25 0.2250 0.2250   200.19 0.2500
 -72.76   270.82 0.2250 0.2250   205.34 0.2500
 -68.84   272.97 0.2250 0.2250   209.63 0.2500
 -65.52   274.92 0.2250 0.2250   213.54 0.2500
 -62.58   276.75 0.2250 0.2250   217.21 0.2500
 -59.90   278.49 0.2250 0.2250   220.67 0.2500
 -57.43   280.13 0.2250 0.2250   223.97 0.2500
 -55.11   281.71 0.2250 0.2250   227.11 0.2500
 -52.92   283.21 0.2250 0.2250   230.11 0.2500
 -50.83   284.64 0.2250 0.2250   232.98 0.2500
 -48.83   286.02 0.2250 0.2250   235.73 0.2500
 -46.91   287.33 0.2250 0.2250   238.36 0.2500
 -45.06   288.59 0.2250 0.2250   240.88 0.2500
 -43.27   289.79 0.2250 0.2250   243.29 0.2500
 -41.52   290.95 0.2250 0.2250   245.59 0.2500
 -39.83   292.05 0.2250 0.2250   247.80 0.2500
 -38.17   293.10 0.2250 0.2250   249.90 0.2500
 -36.55   294.11 0.2250 0.2250   251.92 0.2500
 -34.96   295.07 0.2250 0.2250   253.84 0.2500
 -33.41   295.99 0.2250 0.2250   255.67 0.2500
 -31.88   296.86 0.2250 0.2250   257.42 0.2500
 -30.37   297.69 0.2250 0.2250   259.08 0.2500
 -28.89   298.48 0.2250 0.2250   260.66 0.2500
 -27.43   299.23 0.2250 0.2250   262.16 0.2500
 -25.99   299.94 0.2250 0.2250   263.57 0.2500
 -24.57   300.61 0.2250 0.2250   264.91 0.2500
 -23.16   301.24 0.2250 0.2250   266.17 0.2500
 -21.76   301.83 0.2250 0.2250   267.36 0.2500
 -20.38   302.39 0.2250 0.2250   268.47 0.2500
 -19.02   302.90 0.2250 0.2250   269.51 0.2500
 -17.66   303.39 0.2250 0.2250   270.47 0.2500
 -16.31   303.83 0.2250 0.2250   271.37 0.2500
 -14.98   304.24 0.2250 0.2250   272.19 0.2500
 -13.65   304.62 0.2250 0.2250   272.94 0.2500
 -12.33   304.96 0.2250 0.2250   273.62 0.2500
 -11.01   305.26 0.2250 0.2250   274.23 0.2500
  -9.70   305.53 0.2250 0.2250   274.77 0.2500
  -8.40   305.77 0.2250 0.2250   275.24 0.2500
  -7.10   305.97 0.2250 0.2250   275.65 0.2500
  -5.80   306.14 0.2250 0.2250   275.98 0.2500
  -4.51   306.28 0.2250 0.2250   276.25 0.2500
  -3.22   306.38 0.2250 0.2250   276.45 0.2500
  -1.93   306.44 0.2250 0.2250   276.59 0.2500
  -0.64   306.48 0.2250 0.2250   276.66 0.2500
   0.64   306.48 0.2250 0.2250   276.66 0.2500
   1.93   306.44 0.2250 0.2250   276.59 0.2500
   3.22   306.38 0.2250 0.2250   276.45 0.2500
   4.51   306.28 0.2250 0.2250   276.25 0.2500
   5.80   306.14 0.2250 0.2250   275.98 0.2500
   7.10   305.97 0.2250 0.2250   275.65 0.2500
   8.40   305.77 0.2250 0.2250   275.24 0.2500
   9.70   305.53 0.2250 0.2250   274.77 0.2500
  11.01   305.26 0.2250 0.2250   274.23 0.2500
  12.33   304.96 0.2250 0.2250   273.62 0.2500
  13.65   304.62 0.2250 0.2250   272.94 0.2500
  14.98   304.24 0.2250 0.2250   272.19 0.2500
  16.31   303.83 0.2250 0.2250   271.37 0.2500
  17.66   303.39 0.2250 0.2250   270.47 0.2500
  19.02   302.90 0.2250 0.2250   269.51 0.2500
  20.38   302.39 0.2250 0.2250   268.47 0.2500
  21.76   301.83 0.2250 0.2250   267.36 0.2500
  23.16   301.24 0.2250 0.2250   266.17 0.2500
  24.57   300.61 0.2250 0.2250   264.91 0.2500
  25.99   299.94 0.2250 0.2250   263.57 0.2500
  27.43   299.23 0.2250 0.2250   262.16 0.2500
  28.89   298.48 0.2250 0.2250   260.66 0.2500
  30.37   297.69 0.2250 0.2250   259.08 0.2500
  31.88   296.86 0.2250 0.2250   257.42 0.2500
  33.41   295.99 0.2250 0.2250   255.67 0.2500
  34.96   295.07 0.2250 0.2250   253.84 0.2500
  36.55   294.11 0.2250 0.2250   251.92 0.2500
  38.17   293.10 0.2250 0.2250   249.90 0.2500
  39.83   292.05 0.2250 0.2250   247.80 0.2500
  41.52   290.95 0.2250 0.2250   245.59 0.2500
  43.27   289.79 0.2250 0.2250   243.29 0.2500
  45.06   288.59 0.2250 0.2250   240.88 0.2500
  46.91   287.33 0.2250 0.2250   238.36 0.2500
  48.83   286.02 0.2250 0.2250   235.73 0.2500
  50.83   284.64 0.2250 0.2250   232.98 0.2500
  52.92   283.21 0.2250 0.2250   230.11 0.2500
  55.11   281.71 0.2250 0.2250   227.11 0.2500
  57.43   280.13 0.2250 0.2250   223.97 0.2500
  59.90   278.49 0.2250 0.2250   220.67 0.2500
  62.58   276.75 0.2250 0.2250   217.21 0.2500
  65.52   274.92 0.2250 0.2250   213.54 0.2500
  68.84   272.97 0.2250 0.2250   209.63 0.2500
  72.76   270.82 0.2250 0.2250   205.34 0.2500
  77.83   268.25 0.2250 0.2250   200.19 0.2500
  90.00   263.56 0.3813 0.3813   190.83 0.2500
