# Name of benchmark/experiment: FILLET Experiment 3 (instellation bifurcation)
# Case number: 68
# Branch: warming
# Instellation (S_earth): 0.9375
# XCO2 (ppm): 280.0
# Obliquity (degrees): 23.5
# Mode: seasonal
#
# Columns of data (annually averaged for last orbit)
# Lat Tsurf Asurf ATOA OLR Fland
 -90.00   217.72 0.6000 0.6000    99.15 0.2500
 -77.83   219.35 0.6000 0.6000   102.39 0.2500
 -72.76   220.42 0.6000 0.6000   104.54 0.2500
 -68.84   221.38 0.6000 0.6000   106.46 0.2500
 -65.52   222.28 0.6000 0.6000   108.26 0.2500
 -62.58   223.14 0.6000 0.6000   109.98 0.2500
 -59.90   223.97 0.6000 0.6000   111.63 0.2500
 -57.43   224.76 0.6000 0.6000   113.22 0.2500
 -55.11   225.52 0.6000 0.6000   114.74 0.2500
 -52.92   226.25 0.6000 0.6000   116.20 0.2500
 -50.83   226.95 0.6000 0.6000   117.60 0.2500
 -48.83   227.62 0.6000 0.6000   118.95 0.2500
 -46.91   228.27 0.6000 0.6000   120.24 0.2500
 -45.06   228.89 0.6000 0.6000   121.47 0.2500
 -43.27   229.48 0.6000 0.6000   122.66 0.2500
 -41.52   230.05 0.6000 0.6000   123.80 0.2500
 -39.83   230.59 0.6000 0.6000   124.89 0.2500
 -38.17   231.11 0.6000 0.6000   125.93 0.2500
 -36.55   231.61 0.6000 0.6000   126.93 0.2500
 -34.96   232.09 0.6000 0.6000   127.88 0.2500
 -33.41   232.54 0.6000 0.6000   128.79 0.2500
 -31.88   232.98 0.6000 0.6000   129.65 0.2500
 -30.37   233.39 0.6000 0.6000   130.48 0.2500
 -28.89   233.78 0.6000 0.6000   131.26 0.2500
 -27.43   234.15 0.6000 0.6000   132.00 0.2500
 -25.99   234.50 0.6000 0.6000   132.71 0.2500
 -24.57   234.84 0.6000 0.6000   133.37 0.2500
 -23.16   235.15 0.6000 0.6000   134.00 0.2500
 -21.76   235.45 0.6000 0.6000   134.59 0.2500
 -20.38   235.72 0.6000 0.6000   135.14 0.2500
 -19.02   235.98 0.6000 0.6000   135.66 0.2500
 -17.66   236.22 0.6000 0.6000   136.14 0.2500
 -16.31   236.44 0.6000 0.6000   136.59 0.2500
 -14.98   236.65 0.6000 0.6000   136.99 0.2500
 -13.65   236.83 0.6000 0.6000   137.37 0.2500
 -12.33   237.00 0.6000 0.6000   137.71 0.2500
 -11.01   237.16 0.6000 0.6000   138.01 0.2500
  -9.70   237.29 0.6000 0.6000   138.28 0.2500
  -8.40   237.41 0.6000 0.6000   138.52 0.2500
  -7.10   237.51 0.6000 0.6000   138.72 0.2500
  -5.80   237.59 0.6000 0.6000   138.89 0.2500
  -4.51   237.66 0.6000 0.6000   139.02 0.2500
  -3.22   237.71 0.6000 0.6000   139.12 0.2500
  -1.93   237.74 0.6000 0.6000   139.19 0.2500
  -0.64   237.76 0.6000 0.6000   139.22 0.2500
   0.64   237.76 0.6000 0.6000   139.22 0.2500
   1.93   237.74 0.6000 0.6000   139.19 0.2500
   3.22   237.71 0.6000 0.6000   139.12 0.2500
   4.51   237.66 0.6000 0.6000   139.02 0.2500
   5.80   237.59 0.6000 0.6000   138.89 0.2500
   7.10   237.51 0.6000 0.6000   138.72 0.2500
   8.40   237.41 0.6000 0.6000   138.52 0.2500
   9.70   237.29 0.6000 0.6000   138.28 0.2500
  11.01   237.16 0.6000 0.6000   138.01 0.2500
  12.33   237.00 0.6000 0.6000   137.71 0.2500
  13.65   236.83 0.6000 0.6000   137.37 0.2500
  14.98   236.65 0.6000 0.6000   136.99 0.2500
  16.31   236.44 0.6000 0.6000   136.59 0.2500
  17.66   236.22 0.6000 0.6000   136.14 0.2500
  19.02   235.98 0.6000 0.6000   135.66 0.2500
  20.38   235.72 0.6000 0.6000   135.14 0.2500
  21.76   235.45 0.6000 0.6000   134.59 0.2500
  23.16   235.15 0.6000 0.6000   134.00 0.2500
  24.57   234.84 0.6000 0.6000   133.37 0.2500
  25.99   234.50 0.6000 0.6000   132.71 0.2500
  27.43   234.15 0.6000 0.6000   132.00 0.2500
  28.89   233.78 0.6000 0.6000   131.26 0.2500
  30.37   233.39 0.6000 0.6000   130.48 0.2500
  31.88   232.98 0.6000 0.6000   129.65 0.2500
  33.41   232.54 0.6000 0.6000   128.79 0.2500
  34.96   232.09 0.6000 0.6000   127.88 0.2500
  36.55   231.61 0.6000 0.6000   126.93 0.2500
  38.17   231.11 0.6000 0.6000   125.93 0.2500
  39.83   230.59 0.6000 0.6000   124.89 0.2500
  41.52   230.05 0.6000 0.6000   123.80 0.2500
  43.27   229.48 0.6000 0.6000   122.66 0.2500
  45.06   228.89 0.6000 0.6000   121.47 0.2500
  46.91   228.27 0.6000 0.6000   120.24 0.2500
  48.83   227.62 0.6000 0.6000   118.95 0.2500
  50.83   226.95 0.6000 0.6000   117.60 0.2500
  52.92   226.25 0.6000 0.6000   116.20 0.2500
  55.11   225.52 0.6000 0.6000   114.74 0.2500
  57.43   224.76 0.6000 0.6000   113.22 0.2500
  59.90   223.97 0.6000 0.6000   111.63 0.2500
  62.58   223.14 0.6000 0.6000   109.98 0.2500
  65.52   222.28 0.6000 0.6000   108.26 0.2500
  68.84   221.38 0.6000 0.6000   106.46 0.2500
  72.76   220.42 0.6000 0.6000   104.54 0.2500
  77.83   219.35 0.6000 0.6000   102.39 0.2500
  90.00   217.72 0.6000 0.6000    99.15 0.2500
