# Name of benchmark/experiment: FILLET Experiment 1 (warm start)
# Case number: 31
# Instellation (S_earth): 1.1
# XCO2 (ppm): 280.0
# Obliquity (degrees): 10.0
# Mode: seasonal
#
# Columns of data (annually averaged for last orbit)
# Lat Tsurf Asurf ATOA OLR Fland
 -90.00   268.47 0.2250 0.2250   200.64 0.2500
 -77.83   274.70 0.2250 0.2250   213.11 0.2500
 -72.76   278.67 0.2250 0.2250   221.04 0.2500
 -68.84   282.04 0.2250 0.2250   227.78 0.2500
 -65.52   285.06 0.2250 0.2250   233.83 0.2500
 -62.58   287.84 0.2250 0.2250   239.39 0.2500
 -59.90   290.43 0.2250 0.2250   244.57 0.2500
 -57.43   292.86 0.2250 0.2250   249.42 0.2500
 -55.11   295.15 0.2250 0.2250   254.00 0.2500
 -52.92   297.31 0.2250 0.2250   258.33 0.2500
 -50.83   299.37 0.2250 0.2250   262.43 0.2500
 -48.83   301.31 0.2250 0.2250   266.33 0.2500
 -46.91   303.17 0.2250 0.2250   270.04 0.2500
 -45.06   304.93 0.2250 0.2250   273.56 0.2500
 -43.27   306.61 0.2250 0.2250   276.92 0.2500
 -41.52   308.21 0.2250 0.2250   280.12 0.2500
 -39.83   309.73 0.2250 0.2250   283.17 0.2500
 -38.17   311.19 0.2250 0.2250   286.07 0.2500
 -36.55   312.57 0.2250 0.2250   288.84 0.2500
 -34.96   313.88 0.2250 0.2250   291.47 0.2500
 -33.41   315.14 0.2250 0.2250   293.97 0.2500
 -31.88   316.32 0.2250 0.2250   296.35 0.2500
 -30.37   317.45 0.2250 0.2250   298.61 0.2500
 -28.89   318.52 0.2250 0.2250   300.75 0.2500
 -27.43   319.54 0.2250 0.2250   302.77 0.2500
 -25.99   320.49 0.2250 0.2250   304.69 0.2500
 -24.57   321.40 0.2250 0.2250   306.49 0.2500
 -23.16   322.25 0.2250 0.2250   308.19 0.2500
 -21.76   323.04 0.2250 0.2250   309.79 0.2500
 -20.38   323.79 0.2250 0.2250   311.28 0.2500
 -19.02   324.49 0.2250 0.2250   312.67 0.2500
 -17.66   325.13 0.2250 0.2250   313.97 0.2500
 -16.31   325.73 0.2250 0.2250   315.16 0.2500
 -14.98   326.28 0.2250 0.2250   316.26 0.2500
 -13.65   326.78 0.2250 0.2250   317.26 0.2500
 -12.33   327.24 0.2250 0.2250   318.17 0.2500
 -11.01   327.64 0.2250 0.2250   318.99 0.2500
  -9.70   328.01 0.2250 0.2250   319.71 0.2500
  -8.40   328.32 0.2250 0.2250   320.34 0.2500
  -7.10   328.59 0.2250 0.2250   320.88 0.2500
  -5.80   328.82 0.2250 0.2250   321.33 0.2500
  -4.51   328.99 0.2250 0.2250   321.69 0.2500
  -3.22   329.13 0.2250 0.2250   321.96 0.2500
  -1.93   329.22 0.2250 0.2250   322.14 0.2500
  -0.64   329.26 0.2250 0.2250   322.23 0.2500
   0.64   329.26 0.2250 0.2250   322.23 0.2500
   1.93   329.22 0.2250 0.2250   322.14 0.2500
   3.22   329.13 0.2250 0.2250   321.96 0.2500
   4.51   328.99 0.2250 0.2250   321.69 0.2500
   5.80   328.82 0.2250 0.2250   321.33 0.2500
   7.10   328.59 0.2250 0.2250   320.88 0.2500
   8.40   328.32 0.2250 0.2250   320.34 0.2500
   9.70   328.01 0.2250 0.2250   319.71 0.2500
  11.01   327.64 0.2250 0.2250   318.99 0.2500
  12.33   327.24 0.2250 0.2250   318.17 0.2500
  13.65   326.78 0.2250 0.2250   317.26 0.2500
  14.98   326.28 0.2250 0.2250   316.26 0.2500
  16.31   325.73 0.2250 0.2250   315.16 0.2500
  17.66   325.13 0.2250 0.2250   313.97 0.2500
  19.02   324.49 0.2250 0.2250   312.67 0.2500
  20.38   323.79 0.2250 0.2250   311.28 0.2500
  21.76   323.04 0.2250 0.2250   309.79 0.2500
  23.16   322.25 0.2250 0.2250   308.19 0.2500
  24.57   321.40 0.2250 0.2250   306.49 0.2500
  25.99   320.49 0.2250 0.2250   304.69 0.2500
  27.43   319.54 0.2250 0.2250   302.77 0.2500
  28.89   318.52 0.2250 0.2250   300.75 0.2500
  30.37   317.45 0.2250 0.2250   298.61 0.2500
  31.88   316.32 0.2250 0.2250   296.35 0.2500
  33.41   315.14 0.2250 0.2250   293.97 0.2500
  34.96   313.88 0.2250 0.2250   291.47 0.2500
  36.55   312.57 0.2250 0.2250   288.84 0.2500
  38.17   311.19 0.2250 0.2250   286.07 0.2500
  39.83   309.73 0.2250 0.2250   283.17 0.2500
  41.52   308.21 0.2250 0.2250   280.12 0.2500
  43.27   306.61 0.2250 0.2250   276.92 0.2500
  45.06   304.93 0.2250 0.2250   273.56 0.2500
  46.91   303.17 0.2250 0.2250   270.04 0.2500
  48.83   301.31 0.2250 0.2250   266.33 0.2500
  50.83   299.37 0.2250 0.2250   262.43 0.2500
  52.92   297.31 0.2250 0.2250   258.33 0.2500
  55.11   295.15 0.2250 0.2250   254.00 0.2500
  57.43   292.86 0.2250 0.2250   249.42 0.2500
  59.90   290.43 0.2250 0.2250   244.57 0.2500
  62.58   287.84 0.2250 0.2250   239.39 0.2500
  65.52   285.06 0.2250 0.2250   233.83 0.2500
  68.84   282.04 0.2250 0.2250   227.78 0.2500
  72.76   278.67 0.2250 0.2250   221.04 0.2500
  77.83   274.70 0.2250 0.2250   213.11 0.2500
  90.00   268.47 0.2250 0.2250   200.64 0.2500
