# Name of benchmark/experiment: FILLET Experiment 1 (warm start)
# Case number: 56
# Instellation (S_earth): 1.25
# XCO2 (ppm): 280.0
# Obliquity (degrees): 20.0
# Mode: seasonal
#
# Columns of data (annually averaged for last orbit)
# Lat Tsurf Asurf ATOA OLR Fland
 -90.00   292.15 0.2250 0.2250   247.99 0.2500
 -77.83   297.02 0.2250 0.2250   257.73 0.2500
 -72.76   300.23 0.2250 0.2250   264.17 0.2500
 -68.84   303.09 0.2250 0.2250   269.89 0.2500
 -65.52   305.76 0.2250 0.2250   275.22 0.2500
 -62.58   308.28 0.2250 0.2250   280.25 0.2500
 -59.90   310.66 0.2250 0.2250   285.03 0.2500
 -57.43   312.94 0.2250 0.2250   289.58 0.2500
 -55.11   315.11 0.2250 0.2250   293.91 0.2500
 -52.92   317.18 0.2250 0.2250   298.05 0.2500
 -50.83   319.16 0.2250 0.2250   302.01 0.2500
 -48.83   321.05 0.2250 0.2250   305.79 0.2500
 -46.91   322.86 0.2250 0.2250   309.41 0.2500
 -45.06   324.59 0.2250 0.2250   312.87 0.2500
 -43.27   326.24 0.2250 0.2250   316.18 0.2500
 -41.52   327.82 0.2250 0.2250   319.35 0.2500
 -39.83   329.34 0.2250 0.2250   322.37 0.2500
 -38.17   330.78 0.2250 0.2250   325.26 0.2500
 -36.55   332.16 0.2250 0.2250   328.03 0.2500
 -34.96   333.48 0.2250 0.2250   330.66 0.2500
 -33.41   334.73 0.2250 0.2250   333.17 0.2500
 -31.88   335.93 0.2250 0.2250   335.56 0.2500
 -30.37   337.07 0.2250 0.2250   337.83 0.2500
 -28.89   338.15 0.2250 0.2250   339.99 0.2500
 -27.43   339.17 0.2250 0.2250   342.04 0.2500
 -25.99   340.14 0.2250 0.2250   343.98 0.2500
 -24.57   341.05 0.2250 0.2250   345.81 0.2500
 -23.16   341.91 0.2250 0.2250   347.53 0.2500
 -21.76   342.72 0.2250 0.2250   349.15 0.2500
 -20.38   343.48 0.2250 0.2250   350.67 0.2500
 -19.02   344.19 0.2250 0.2250   352.08 0.2500
 -17.66   344.85 0.2250 0.2250   353.40 0.2500
 -16.31   345.46 0.2250 0.2250   354.61 0.2500
 -14.98   346.02 0.2250 0.2250   355.73 0.2500
 -13.65   346.53 0.2250 0.2250   356.76 0.2500
 -12.33   346.99 0.2250 0.2250   357.68 0.2500
 -11.01   347.41 0.2250 0.2250   358.52 0.2500
  -9.70   347.78 0.2250 0.2250   359.25 0.2500
  -8.40   348.10 0.2250 0.2250   359.90 0.2500
  -7.10   348.38 0.2250 0.2250   360.45 0.2500
  -5.80   348.60 0.2250 0.2250   360.91 0.2500
  -4.51   348.79 0.2250 0.2250   361.28 0.2500
  -3.22   348.93 0.2250 0.2250   361.55 0.2500
  -1.93   349.02 0.2250 0.2250   361.73 0.2500
  -0.64   349.06 0.2250 0.2250   361.83 0.2500
   0.64   349.06 0.2250 0.2250   361.83 0.2500
   1.93   349.02 0.2250 0.2250   361.73 0.2500
   3.22   348.93 0.2250 0.2250   361.55 0.2500
   4.51   348.79 0.2250 0.2250   361.28 0.2500
   5.80   348.60 0.2250 0.2250   360.91 0.2500
   7.10   348.38 0.2250 0.2250   360.45 0.2500
   8.40   348.10 0.2250 0.2250   359.90 0.2500
   9.70   347.78 0.2250 0.2250   359.25 0.2500
  11.01   347.41 0.2250 0.2250   358.52 0.2500
  12.33   346.99 0.2250 0.2250   357.68 0.2500
  13.65   346.53 0.2250 0.2250   356.76 0.2500
  14.98   346.02 0.2250 0.2250   355.73 0.2500
  16.31   345.46 0.2250 0.2250   354.61 0.2500
  17.66   344.85 0.2250 0.2250   353.40 0.2500
  19.02   344.19 0.2250 0.2250   352.08 0.2500
  20.38   343.48 0.2250 0.2250   350.67 0.2500
  21.76   342.72 0.2250 0.2250   349.15 0.2500
  23.16   341.91 0.2250 0.2250   347.53 0.2500
  24.57   341.05 0.2250 0.2250   345.81 0.2500
  25.99   340.14 0.2250 0.2250   343.98 0.2500
  27.43   339.17 0.2250 0.2250   342.04 0.2500
  28.89   338.15 0.2250 0.2250   339.99 0.2500
  30.37   337.07 0.2250 0.2250   337.83 0.2500
  31.88   335.93 0.2250 0.2250   335.56 0.2500
  33.41   334.73 0.2250 0.2250   333.17 0.2500
  34.96   333.48 0.2250 0.2250   330.66 0.2500
  36.55   332.16 0.2250 0.2250   328.03 0.2500
  38.17   330.78 0.2250 0.2250   325.26 0.2500
  39.83   329.34 0.2250 0.2250   322.37 0.2500
  41.52   327.82 0.2250 0.2250   319.35 0.2500
  43.27   326.24 0.2250 0.2250   316.18 0.2500
  45.06   324.59 0.2250 0.2250   312.87 0.2500
  46.91   322.86 0.2250 0.2250   309.41 0.2500
  48.83   321.05 0.2250 0.2250   305.79 0.2500
  50.83   319.16 0.2250 0.2250   302.01 0.2500
  52.92   317.18 0.2250 0.2250   298.05 0.2500
  55.11   315.11 0.2250 0.2250   293.91 0.2500
  57.43   312.94 0.2250 0.2250   289.58 0.2500
  59.90   310.66 0.2250 0.2250   285.03 0.2500
  62.58   308.28 0.2250 0.2250   280.25 0.2500
  65.52   305.76 0.2250 0.2250   275.22 0.2500
  68.84   303.09 0.2250 0.2250   269.89 0.2500
  72.76   300.23 0.2250 0.2250   264.17 0.2500
  77.83   297.02 0.2250 0.2250   257.73 0.2500
  90.00   292.15 0.2250 0.2250   247.99 0.2500
