# Name of benchmark/experiment: FILLET Experiment 1 (warm start)
# Case number: 1
# Instellation (S_earth): 0.825
# XCO2 (ppm): 280.0
# Obliquity (degrees): 0.0
# Mode: seasonal
#
# Columns of data (annually averaged for last orbit)
# Lat Tsurf Asurf ATOA OLR Fland
 -90.00   204.57 0.6000 0.6000    72.83 0.2500
 -77.83   207.86 0.6000 0.6000    79.42 0.2500
 -72.76   209.72 0.6000 0.6000    83.14 0.2500
 -68.84   211.22 0.6000 0.6000    86.15 0.2500
 -65.52   212.54 0.6000 0.6000    88.79 0.2500
 -62.58   213.74 0.6000 0.6000    91.18 0.2500
 -59.90   214.84 0.6000 0.6000    93.37 0.2500
 -57.43   215.86 0.6000 0.6000    95.42 0.2500
 -55.11   216.82 0.6000 0.6000    97.33 0.2500
 -52.92   217.72 0.6000 0.6000    99.13 0.2500
 -50.83   218.57 0.6000 0.6000   100.83 0.2500
 -48.83   219.37 0.6000 0.6000   102.44 0.2500
 -46.91   220.13 0.6000 0.6000   103.96 0.2500
 -45.06   220.86 0.6000 0.6000   105.41 0.2500
 -43.27   221.54 0.6000 0.6000   106.79 0.2500
 -41.52   222.20 0.6000 0.6000   108.09 0.2500
 -39.83   222.82 0.6000 0.6000   109.34 0.2500
 -38.17   223.41 0.6000 0.6000   110.52 0.2500
 -36.55   223.97 0.6000 0.6000   111.65 0.2500
 -34.96   224.51 0.6000 0.6000   112.72 0.2500
 -33.41   225.02 0.6000 0.6000   113.73 0.2500
 -31.88   225.50 0.6000 0.6000   114.70 0.2500
 -30.37   225.96 0.6000 0.6000   115.61 0.2500
 -28.89   226.39 0.6000 0.6000   116.48 0.2500
 -27.43   226.80 0.6000 0.6000   117.30 0.2500
 -25.99   227.19 0.6000 0.6000   118.07 0.2500
 -24.57   227.55 0.6000 0.6000   118.80 0.2500
 -23.16   227.89 0.6000 0.6000   119.49 0.2500
 -21.76   228.22 0.6000 0.6000   120.13 0.2500
 -20.38   228.52 0.6000 0.6000   120.73 0.2500
 -19.02   228.80 0.6000 0.6000   121.30 0.2500
 -17.66   229.06 0.6000 0.6000   121.82 0.2500
 -16.31   229.30 0.6000 0.6000   122.30 0.2500
 -14.98   229.52 0.6000 0.6000   122.74 0.2500
 -13.65   229.72 0.6000 0.6000   123.15 0.2500
 -12.33   229.91 0.6000 0.6000   123.51 0.2500
 -11.01   230.07 0.6000 0.6000   123.84 0.2500
  -9.70   230.22 0.6000 0.6000   124.13 0.2500
  -8.40   230.34 0.6000 0.6000   124.39 0.2500
  -7.10   230.45 0.6000 0.6000   124.60 0.2500
  -5.80   230.54 0.6000 0.6000   124.78 0.2500
  -4.51   230.61 0.6000 0.6000   124.93 0.2500
  -3.22   230.67 0.6000 0.6000   125.04 0.2500
  -1.93   230.70 0.6000 0.6000   125.11 0.2500
  -0.64   230.72 0.6000 0.6000   125.14 0.2500
   0.64   230.72 0.6000 0.6000   125.14 0.2500
   1.93   230.70 0.6000 0.6000   125.11 0.2500
   3.22   230.67 0.6000 0.6000   125.04 0.2500
   4.51   230.61 0.6000 0.6000   124.93 0.2500
   5.80   230.54 0.6000 0.6000   124.78 0.2500
   7.10   230.45 0.6000 0.6000   124.60 0.2500
   8.40   230.34 0.6000 0.6000   124.39 0.2500
   9.70   230.22 0.6000 0.6000   124.13 0.2500
  11.01   230.07 0.6000 0.6000   123.84 0.2500
  12.33   229.91 0.6000 0.6000   123.51 0.2500
  13.65   229.72 0.6000 0.6000   123.15 0.2500
  14.98   229.52 0.6000 0.6000   122.74 0.2500
  16.31   229.30 0.6000 0.6000   122.30 0.2500
  17.66   229.06 0.6000 0.6000   121.82 0.2500
  19.02   228.80 0.6000 0.6000   121.30 0.2500
  20.38   228.52 0.6000 0.6000   120.73 0.2500
  21.76   228.22 0.6000 0.6000   120.13 0.2500
  23.16   227.89 0.6000 0.6000   119.49 0.2500
  24.57   227.55 0.6000 0.6000   118.80 0.2500
  25.99   227.19 0.6000 0.6000   118.07 0.2500
  27.43   226.80 0.6000 0.6000   117.30 0.2500
  28.89   226.39 0.6000 0.6000   116.48 0.2500
  30.37   225.96 0.6000 0.6000   115.61 0.2500
  31.88   225.50 0.6000 0.6000   114.70 0.2500
  33.41   225.02 0.6000 0.6000   113.73 0.2500
  34.96   224.51 0.6000 0.6000   112.72 0.2500
  36.55   223.97 0.6000 0.6000   111.65 0.2500
  38.17   223.41 0.6000 0.6000   110.52 0.2500
  39.83   222.82 0.6000 0.6000   109.34 0.2500
  41.52   222.20 0.6000 0.6000   108.09 0.2500
  43.27   221.54 0.6000 0.6000   106.79 0.2500
  45.06   220.86 0.6000 0.6000   105.41 0.2500
  46.91   220.13 0.6000 0.6000   103.96 0.2500
  48.83   219.37 0.6000 0.6000   102.44 0.2500
  50.83   218.57 0.6000 0.6000   100.83 0.2500
  52.92   217.72 0.6000 0.6000    99.13 0.2500
  55.11   216.82 0.6000 0.6000    97.33 0.2500
  57.43   215.86 0.6000 0.6000    95.42 0.2500
  59.90   214.84 0.6000 0.6000    93.37 0.2500
  62.58   213.74 0.6000 0.6000    91.18 0.2500
  65.52   212.54 0.6000 0.6000    88.79 0.2500
  68.84   211.22 0.6000 0.6000    86.15 0.2500
  72.76   209.72 0.6000 0.6000    83.14 0.2500
  77.83   207.86 0.6000 0.6000    79.42 0.2500
  90.00   204.57 0.6000 0.6000    72.83 0.2500
