# Name of benchmark/experiment: FILLET Experiment 1 (warm start)
# Case number: 44
# Instellation (S_earth): 0.95
# XCO2 (ppm): 280.0
# Obliquity (degrees): 20.0
# Mode: seasonal
#
# Columns of data (annually averaged for last orbit)
# Lat Tsurf Asurf ATOA OLR Fland
 -90.00   254.30 0.6000 0.6000   172.30 0.2500
 -77.83   259.60 0.6000 0.6000   182.91 0.2500
 -72.76   263.26 0.4125 0.4125   190.21 0.2500
 -68.84   266.41 0.2250 0.2250   196.51 0.2500
 -65.52   269.08 0.2250 0.2250   201.86 0.2500
 -62.58   271.47 0.2250 0.2250   206.63 0.2500
 -59.90   273.65 0.2250 0.2250   210.99 0.2500
 -57.43   275.66 0.2250 0.2250   215.03 0.2500
 -55.11   277.55 0.2250 0.2250   218.80 0.2500
 -52.92   279.32 0.2250 0.2250   222.35 0.2500
 -50.83   281.00 0.2250 0.2250   225.69 0.2500
 -48.83   282.58 0.2250 0.2250   228.86 0.2500
 -46.91   284.08 0.2250 0.2250   231.86 0.2500
 -45.06   285.51 0.2250 0.2250   234.72 0.2500
 -43.27   286.87 0.2250 0.2250   237.43 0.2500
 -41.52   288.16 0.2250 0.2250   240.01 0.2500
 -39.83   289.38 0.2250 0.2250   242.47 0.2500
 -38.17   290.55 0.2250 0.2250   244.81 0.2500
 -36.55   291.67 0.2250 0.2250   247.03 0.2500
 -34.96   292.73 0.2250 0.2250   249.15 0.2500
 -33.41   293.73 0.2250 0.2250   251.16 0.2500
 -31.88   294.69 0.2250 0.2250   253.07 0.2500
 -30.37   295.59 0.2250 0.2250   254.89 0.2500
 -28.89   296.45 0.2250 0.2250   256.61 0.2500
 -27.43   297.27 0.2250 0.2250   258.24 0.2500
 -25.99   298.04 0.2250 0.2250   259.77 0.2500
 -24.57   298.76 0.2250 0.2250   261.22 0.2500
 -23.16   299.44 0.2250 0.2250   262.59 0.2500
 -21.76   300.09 0.2250 0.2250   263.87 0.2500
 -20.38   300.68 0.2250 0.2250   265.07 0.2500
 -19.02   301.24 0.2250 0.2250   266.19 0.2500
 -17.66   301.76 0.2250 0.2250   267.23 0.2500
 -16.31   302.24 0.2250 0.2250   268.18 0.2500
 -14.98   302.68 0.2250 0.2250   269.07 0.2500
 -13.65   303.09 0.2250 0.2250   269.87 0.2500
 -12.33   303.45 0.2250 0.2250   270.60 0.2500
 -11.01   303.78 0.2250 0.2250   271.26 0.2500
  -9.70   304.07 0.2250 0.2250   271.84 0.2500
  -8.40   304.32 0.2250 0.2250   272.34 0.2500
  -7.10   304.54 0.2250 0.2250   272.78 0.2500
  -5.80   304.72 0.2250 0.2250   273.14 0.2500
  -4.51   304.86 0.2250 0.2250   273.43 0.2500
  -3.22   304.97 0.2250 0.2250   273.64 0.2500
  -1.93   305.04 0.2250 0.2250   273.78 0.2500
  -0.64   305.08 0.2250 0.2250   273.86 0.2500
   0.64   305.08 0.2250 0.2250   273.86 0.2500
   1.93   305.04 0.2250 0.2250   273.78 0.2500
   3.22   304.97 0.2250 0.2250   273.64 0.2500
   4.51   304.86 0.2250 0.2250   273.43 0.2500
   5.80   304.72 0.2250 0.2250   273.14 0.2500
   7.10   304.54 0.2250 0.2250   272.78 0.2500
   8.40   304.32 0.2250 0.2250   272.34 0.2500
   9.70   304.07 0.2250 0.2250   271.84 0.2500
  11.01   303.78 0.2250 0.2250   271.26 0.2500
  12.33   303.45 0.2250 0.2250   270.60 0.2500
  13.65   303.09 0.2250 0.2250   269.87 0.2500
  14.98   302.68 0.2250 0.2250   269.07 0.2500
  16.31   302.24 0.2250 0.2250   268.18 0.2500
  17.66   301.76 0.2250 0.2250   267.23 0.2500
  19.02   301.24 0.2250 0.2250   266.19 0.2500
  20.38   300.68 0.2250 0.2250   265.07 0.2500
  21.76   300.09 0.2250 0.2250   263.87 0.2500
  23.16   299.44 0.2250 0.2250   262.59 0.2500
  24.57   298.76 0.2250 0.2250   261.22 0.2500
  25.99   298.04 0.2250 0.2250   259.77 0.2500
  27.43   297.27 0.2250 0.2250   258.24 0.2500
  28.89   296.45 0.2250 0.2250   256.61 0.2500
  30.37   295.59 0.2250 0.2250   254.89 0.2500
  31.88   294.69 0.2250 0.2250   253.07 0.2500
  33.41   293.73 0.2250 0.2250   251.16 0.2500
  34.96   292.73 0.2250 0.2250   249.15 0.2500
  36.55   291.67 0.2250 0.2250   247.03 0.2500
  38.17   290.55 0.2250 0.2250   244.81 0.2500
  39.83   289.38 0.2250 0.2250   242.47 0.2500
  41.52   288.16 0.2250 0.2250   240.01 0.2500
  43.27   286.87 0.2250 0.2250   237.43 0.2500
  45.06   285.51 0.2250 0.2250   234.72 0.2500
  46.91   284.08 0.2250 0.2250   231.86 0.2500
  48.83   282.58 0.2250 0.2250   228.86 0.2500
  50.83   281.00 0.2250 0.2250   225.69 0.2500
  52.92   279.32 0.2250 0.2250   222.35 0.2500
  55.11   277.55 0.2250 0.2250   218.80 0.2500
  57.43   275.66 0.2250 0.2250   215.03 0.2500
  59.90   273.65 0.2250 0.2250   210.99 0.2500
  62.58   271.47 0.2250 0.2250   206.63 0.2500
  65.52   269.08 0.2250 0.2250   201.86 0.2500
  68.84   266.41 0.2250 0.2250   196.51 0.2500
  72.76   263.26 0.4125 0.4125   190.21 0.2500
  77.83   259.60 0.6000 0.6000   182.91 0.2500
  90.00   254.30 0.6000 0.6000   172.30 0.2500
