# Name of benchmark/experiment: FILLET Experiment 1 (warm start)
# Case number: 25
# Instellation (S_earth): 0.95
# XCO2 (ppm): 280.0
# Obliquity (degrees): 10.0
# Mode: seasonal
#
# Columns of data (annually averaged for last orbit)
# Lat Tsurf Asurf ATOA OLR Fland
 -90.00   247.65 0.6000 0.6000   159.00 0.2500
 -77.83   253.58 0.6000 0.6000   170.85 0.2500
 -72.76   257.56 0.6000 0.6000   178.82 0.2500
 -68.84   261.15 0.6000 0.6000   186.00 0.2500
 -65.52   264.57 0.2250 0.2250   192.84 0.2500
 -62.58   267.56 0.2250 0.2250   198.82 0.2500
 -59.90   270.25 0.2250 0.2250   204.20 0.2500
 -57.43   272.71 0.2250 0.2250   209.12 0.2500
 -55.11   274.98 0.2250 0.2250   213.67 0.2500
 -52.92   277.10 0.2250 0.2250   217.90 0.2500
 -50.83   279.08 0.2250 0.2250   221.87 0.2500
 -48.83   280.95 0.2250 0.2250   225.60 0.2500
 -46.91   282.71 0.2250 0.2250   229.11 0.2500
 -45.06   284.37 0.2250 0.2250   232.44 0.2500
 -43.27   285.94 0.2250 0.2250   235.59 0.2500
 -41.52   287.43 0.2250 0.2250   238.57 0.2500
 -39.83   288.85 0.2250 0.2250   241.40 0.2500
 -38.17   290.19 0.2250 0.2250   244.08 0.2500
 -36.55   291.46 0.2250 0.2250   246.63 0.2500
 -34.96   292.67 0.2250 0.2250   249.04 0.2500
 -33.41   293.82 0.2250 0.2250   251.33 0.2500
 -31.88   294.90 0.2250 0.2250   253.51 0.2500
 -30.37   295.93 0.2250 0.2250   255.56 0.2500
 -28.89   296.91 0.2250 0.2250   257.51 0.2500
 -27.43   297.83 0.2250 0.2250   259.35 0.2500
 -25.99   298.69 0.2250 0.2250   261.09 0.2500
 -24.57   299.51 0.2250 0.2250   262.72 0.2500
 -23.16   300.28 0.2250 0.2250   264.26 0.2500
 -21.76   301.00 0.2250 0.2250   265.70 0.2500
 -20.38   301.67 0.2250 0.2250   267.04 0.2500
 -19.02   302.30 0.2250 0.2250   268.30 0.2500
 -17.66   302.88 0.2250 0.2250   269.46 0.2500
 -16.31   303.42 0.2250 0.2250   270.54 0.2500
 -14.98   303.91 0.2250 0.2250   271.53 0.2500
 -13.65   304.36 0.2250 0.2250   272.43 0.2500
 -12.33   304.77 0.2250 0.2250   273.24 0.2500
 -11.01   305.14 0.2250 0.2250   273.97 0.2500
  -9.70   305.46 0.2250 0.2250   274.62 0.2500
  -8.40   305.74 0.2250 0.2250   275.19 0.2500
  -7.10   305.99 0.2250 0.2250   275.67 0.2500
  -5.80   306.19 0.2250 0.2250   276.07 0.2500
  -4.51   306.35 0.2250 0.2250   276.40 0.2500
  -3.22   306.47 0.2250 0.2250   276.64 0.2500
  -1.93   306.55 0.2250 0.2250   276.80 0.2500
  -0.64   306.59 0.2250 0.2250   276.88 0.2500
   0.64   306.59 0.2250 0.2250   276.88 0.2500
   1.93   306.55 0.2250 0.2250   276.80 0.2500
   3.22   306.47 0.2250 0.2250   276.64 0.2500
   4.51   306.35 0.2250 0.2250   276.40 0.2500
   5.80   306.19 0.2250 0.2250   276.07 0.2500
   7.10   305.99 0.2250 0.2250   275.67 0.2500
   8.40   305.74 0.2250 0.2250   275.19 0.2500
   9.70   305.46 0.2250 0.2250   274.62 0.2500
  11.01   305.14 0.2250 0.2250   273.97 0.2500
  12.33   304.77 0.2250 0.2250   273.24 0.2500
  13.65   304.36 0.2250 0.2250   272.43 0.2500
  14.98   303.91 0.2250 0.2250   271.53 0.2500
  16.31   303.42 0.2250 0.2250   270.54 0.2500
  17.66   302.88 0.2250 0.2250   269.46 0.2500
  19.02   302.30 0.2250 0.2250   268.30 0.2500
  20.38   301.67 0.2250 0.2250   267.04 0.2500
  21.76   301.00 0.2250 0.2250   265.70 0.2500
  23.16   300.28 0.2250 0.2250   264.26 0.2500
  24.57   299.51 0.2250 0.2250   262.72 0.2500
  25.99   298.69 0.2250 0.2250   261.09 0.2500
  27.43   297.83 0.2250 0.2250   259.35 0.2500
  28.89   296.91 0.2250 0.2250   257.51 0.2500
  30.37   295.93 0.2250 0.2250   255.56 0.2500
  31.88   294.90 0.2250 0.2250   253.51 0.2500
  33.41   293.82 0.2250 0.2250   251.33 0.2500
  34.96   292.67 0.2250 0.2250   249.04 0.2500
  36.55   291.46 0.2250 0.2250   246.63 0.2500
  38.17   290.19 0.2250 0.2250   244.08 0.2500
  39.83   288.85 0.2250 0.2250   241.40 0.2500
  41.52   287.43 0.2250 0.2250   238.57 0.2500
  43.27   285.94 0.2250 0.2250   235.59 0.2500
  45.06   284.37 0.2250 0.2250   232.44 0.2500
  46.91   282.71 0.2250 0.2250   229.11 0.2500
  48.83   280.95 0.2250 0.2250   225.60 0.2500
  50.83   279.08 0.2250 0.2250   221.87 0.2500
  52.92   277.10 0.2250 0.2250   217.90 0.2500
  55.11   274.98 0.2250 0.2250   213.67 0.2500
  57.43   272.71 0.2250 0.2250   209.12 0.2500
  59.90   270.25 0.2250 0.2250   204.20 0.2500
  62.58   267.56 0.2250 0.2250   198.82 0.2500
  65.52   264.57 0.2250 0.2250   192.84 0.2500
  68.84   261.15 0.6000 0.6000   186.00 0.2500
  72.76   257.56 0.6000 0.6000   178.82 0.2500
  77.83   253.58 0.6000 0.6000   170.85 0.2500
  90.00   247.65 0.6000 0.6000   159.00 0.2500
