# Name of benchmark/experiment: FILLET Experiment 1 (warm start)
# Case number: 32
# Instellation (S_earth): 1.125
# XCO2 (ppm): 280.0
# Obliquity (degrees): 10.0
# Mode: seasonal
#
# Columns of data (annually averaged for last orbit)
# Lat Tsurf Asurf ATOA OLR Fland
 -90.00   270.75 0.2250 0.2250   205.20 0.2500
 -77.83   277.13 0.2250 0.2250   217.95 0.2500
 -72.76   281.18 0.2250 0.2250   226.07 0.2500
 -68.84   284.63 0.2250 0.2250   232.95 0.2500
 -65.52   287.72 0.2250 0.2250   239.14 0.2500
 -62.58   290.56 0.2250 0.2250   244.83 0.2500
 -59.90   293.21 0.2250 0.2250   250.12 0.2500
 -57.43   295.70 0.2250 0.2250   255.09 0.2500
 -55.11   298.04 0.2250 0.2250   259.77 0.2500
 -52.92   300.25 0.2250 0.2250   264.20 0.2500
 -50.83   302.35 0.2250 0.2250   268.40 0.2500
 -48.83   304.34 0.2250 0.2250   272.38 0.2500
 -46.91   306.24 0.2250 0.2250   276.17 0.2500
 -45.06   308.04 0.2250 0.2250   279.78 0.2500
 -43.27   309.76 0.2250 0.2250   283.21 0.2500
 -41.52   311.39 0.2250 0.2250   286.49 0.2500
 -39.83   312.95 0.2250 0.2250   289.60 0.2500
 -38.17   314.44 0.2250 0.2250   292.57 0.2500
 -36.55   315.85 0.2250 0.2250   295.40 0.2500
 -34.96   317.20 0.2250 0.2250   298.09 0.2500
 -33.41   318.48 0.2250 0.2250   300.65 0.2500
 -31.88   319.69 0.2250 0.2250   303.08 0.2500
 -30.37   320.85 0.2250 0.2250   305.39 0.2500
 -28.89   321.94 0.2250 0.2250   307.58 0.2500
 -27.43   322.98 0.2250 0.2250   309.65 0.2500
 -25.99   323.96 0.2250 0.2250   311.61 0.2500
 -24.57   324.88 0.2250 0.2250   313.46 0.2500
 -23.16   325.75 0.2250 0.2250   315.20 0.2500
 -21.76   326.56 0.2250 0.2250   316.83 0.2500
 -20.38   327.33 0.2250 0.2250   318.36 0.2500
 -19.02   328.04 0.2250 0.2250   319.78 0.2500
 -17.66   328.70 0.2250 0.2250   321.10 0.2500
 -16.31   329.31 0.2250 0.2250   322.32 0.2500
 -14.98   329.87 0.2250 0.2250   323.45 0.2500
 -13.65   330.39 0.2250 0.2250   324.47 0.2500
 -12.33   330.85 0.2250 0.2250   325.40 0.2500
 -11.01   331.27 0.2250 0.2250   326.24 0.2500
  -9.70   331.64 0.2250 0.2250   326.98 0.2500
  -8.40   331.96 0.2250 0.2250   327.62 0.2500
  -7.10   332.24 0.2250 0.2250   328.17 0.2500
  -5.80   332.47 0.2250 0.2250   328.63 0.2500
  -4.51   332.65 0.2250 0.2250   329.00 0.2500
  -3.22   332.79 0.2250 0.2250   329.28 0.2500
  -1.93   332.88 0.2250 0.2250   329.46 0.2500
  -0.64   332.92 0.2250 0.2250   329.55 0.2500
   0.64   332.92 0.2250 0.2250   329.55 0.2500
   1.93   332.88 0.2250 0.2250   329.46 0.2500
   3.22   332.79 0.2250 0.2250   329.28 0.2500
   4.51   332.65 0.2250 0.2250   329.00 0.2500
   5.80   332.47 0.2250 0.2250   328.63 0.2500
   7.10   332.24 0.2250 0.2250   328.17 0.2500
   8.40   331.96 0.2250 0.2250   327.62 0.2500
   9.70   331.64 0.2250 0.2250   326.98 0.2500
  11.01   331.27 0.2250 0.2250   326.24 0.2500
  12.33   330.85 0.2250 0.2250   325.40 0.2500
  13.65   330.39 0.2250 0.2250   324.47 0.2500
  14.98   329.87 0.2250 0.2250   323.45 0.2500
  16.31   329.31 0.2250 0.2250   322.32 0.2500
  17.66   328.70 0.2250 0.2250   321.10 0.2500
  19.02   328.04 0.2250 0.2250   319.78 0.2500
  20.38   327.33 0.2250 0.2250   318.36 0.2500
  21.76   326.56 0.2250 0.2250   316.83 0.2500
  23.16   325.75 0.2250 0.2250   315.20 0.2500
  24.57   324.88 0.2250 0.2250   313.46 0.2500
  25.99   323.96 0.2250 0.2250   311.61 0.2500
  27.43   322.98 0.2250 0.2250   309.65 0.2500
  28.89   321.94 0.2250 0.2250   307.58 0.2500
  30.37   320.85 0.2250 0.2250   305.39 0.2500
  31.88   319.69 0.2250 0.2250   303.08 0.2500
  33.41   318.48 0.2250 0.2250   300.65 0.2500
  34.96   317.20 0.2250 0.2250   298.09 0.2500
  36.55   315.85 0.2250 0.2250   295.40 0.2500
  38.17   314.44 0.2250 0.2250   292.57 0.2500
  39.83   312.95 0.2250 0.2250   289.60 0.2500
  41.52   311.39 0.2250 0.2250   286.49 0.2500
  43.27   309.76 0.2250 0.2250   283.21 0.2500
  45.06   308.04 0.2250 0.2250   279.78 0.2500
  46.91   306.24 0.2250 0.2250   276.17 0.2500
  48.83   304.34 0.2250 0.2250   272.38 0.2500
  50.83   302.35 0.2250 0.2250   268.40 0.2500
  52.92   300.25 0.2250 0.2250   264.20 0.2500
  55.11   298.04 0.2250 0.2250   259.77 0.2500
  57.43   295.70 0.2250 0.2250   255.09 0.2500
  59.90   293.21 0.2250 0.2250   250.12 0.2500
  62.58   290.56 0.2250 0.2250   244.83 0.2500
  65.52   287.72 0.2250 0.2250   239.14 0.2500
  68.84   284.63 0.2250 0.2250   232.95 0.2500
  72.76   281.18 0.2250 0.2250   226.07 0.2500
  77.83   277.13 0.2250 0.2250   217.95 0.2500
  90.00   270.75 0.2250 0.2250   205.20 0.2500
