# Name of benchmark/experiment: FILLET Experiment 1 (warm start)
# Case number: 95
# Instellation (S_earth): 0.8
# XCO2 (ppm): 280.0
# Obliquity (degrees): 50.0
# Mode: seasonal
#
# Columns of data (annually averaged for last orbit)
# Lat Tsurf Asurf ATOA OLR Fland
 -90.00   271.07 0.2250 0.2250   205.84 0.2500
 -77.83   271.29 0.2250 0.2250   206.28 0.2500
 -72.76   271.37 0.2250 0.2250   206.43 0.2500
 -68.84   271.43 0.2250 0.2250   206.55 0.2500
 -65.52   271.49 0.2250 0.2250   206.67 0.2500
 -62.58   271.56 0.2250 0.2250   206.82 0.2500
 -59.90   271.64 0.2250 0.2250   206.97 0.2500
 -57.43   271.72 0.2250 0.2250   207.14 0.2500
 -55.11   271.81 0.2250 0.2250   207.32 0.2500
 -52.92   271.90 0.2250 0.2250   207.51 0.2500
 -50.83   272.00 0.2250 0.2250   207.71 0.2500
 -48.83   272.11 0.2250 0.2250   207.92 0.2500
 -46.91   272.23 0.2250 0.2250   208.15 0.2500
 -45.06   272.35 0.2250 0.2250   208.40 0.2500
 -43.27   272.48 0.2250 0.2250   208.65 0.2500
 -41.52   272.61 0.2250 0.2250   208.92 0.2500
 -39.83   272.75 0.2250 0.2250   209.20 0.2500
 -38.17   272.90 0.2250 0.2250   209.49 0.2500
 -36.55   273.05 0.2250 0.2250   209.79 0.2500
 -34.96   273.20 0.2250 0.2250   210.09 0.2500
 -33.41   273.35 0.2250 0.2250   210.39 0.2500
 -31.88   273.50 0.2250 0.2250   210.70 0.2500
 -30.37   273.65 0.2250 0.2250   211.00 0.2500
 -28.89   273.80 0.2250 0.2250   211.29 0.2500
 -27.43   273.94 0.2250 0.2250   211.59 0.2500
 -25.99   274.09 0.2250 0.2250   211.87 0.2500
 -24.57   274.22 0.2250 0.2250   212.15 0.2500
 -23.16   274.36 0.2250 0.2250   212.41 0.2500
 -21.76   274.49 0.2250 0.2250   212.67 0.2500
 -20.38   274.61 0.2250 0.2250   212.92 0.2500
 -19.02   274.72 0.2250 0.2250   213.15 0.2500
 -17.66   274.83 0.2250 0.2250   213.37 0.2500
 -16.31   274.94 0.2250 0.2250   213.58 0.2500
 -14.98   275.03 0.2250 0.2250   213.77 0.2500
 -13.65   275.12 0.2250 0.2250   213.95 0.2500
 -12.33   275.21 0.2250 0.2250   214.11 0.2500
 -11.01   275.28 0.2250 0.2250   214.26 0.2500
  -9.70   275.35 0.2250 0.2250   214.39 0.2500
  -8.40   275.40 0.2250 0.2250   214.51 0.2500
  -7.10   275.45 0.2250 0.2250   214.61 0.2500
  -5.80   275.50 0.2250 0.2250   214.69 0.2500
  -4.51   275.53 0.2250 0.2250   214.76 0.2500
  -3.22   275.56 0.2250 0.2250   214.81 0.2500
  -1.93   275.57 0.2250 0.2250   214.84 0.2500
  -0.64   275.58 0.2250 0.2250   214.86 0.2500
   0.64   275.58 0.2250 0.2250   214.86 0.2500
   1.93   275.57 0.2250 0.2250   214.84 0.2500
   3.22   275.56 0.2250 0.2250   214.81 0.2500
   4.51   275.53 0.2250 0.2250   214.76 0.2500
   5.80   275.50 0.2250 0.2250   214.69 0.2500
   7.10   275.45 0.2250 0.2250   214.61 0.2500
   8.40   275.40 0.2250 0.2250   214.51 0.2500
   9.70   275.35 0.2250 0.2250   214.39 0.2500
  11.01   275.28 0.2250 0.2250   214.26 0.2500
  12.33   275.21 0.2250 0.2250   214.11 0.2500
  13.65   275.12 0.2250 0.2250   213.95 0.2500
  14.98   275.03 0.2250 0.2250   213.77 0.2500
  16.31   274.94 0.2250 0.2250   213.58 0.2500
  17.66   274.83 0.2250 0.2250   213.37 0.2500
  19.02   274.72 0.2250 0.2250   213.15 0.2500
  20.38   274.61 0.2250 0.2250   212.92 0.2500
  21.76   274.49 0.2250 0.2250   212.67 0.2500
  23.16   274.36 0.2250 0.2250   212.41 0.2500
  24.57   274.22 0.2250 0.2250   212.15 0.2500
  25.99   274.09 0.2250 0.2250   211.87 0.2500
  27.43   273.94 0.2250 0.2250   211.59 0.2500
  28.89   273.80 0.2250 0.2250   211.29 0.2500
  30.37   273.65 0.2250 0.2250   211.00 0.2500
  31.88   273.50 0.2250 0.2250   210.70 0.2500
  33.41   273.35 0.2250 0.2250   210.39 0.2500
  34.96   273.20 0.2250 0.2250   210.09 0.2500
  36.55   273.05 0.2250 0.2250   209.79 0.2500
  38.17   272.90 0.2250 0.2250   209.49 0.2500
  39.83   272.75 0.2250 0.2250   209.20 0.2500
  41.52   272.61 0.2250 0.2250   208.92 0.2500
  43.27   272.48 0.2250 0.2250   208.65 0.2500
  45.06   272.35 0.2250 0.2250   208.40 0.2500
  46.91   272.23 0.2250 0.2250   208.15 0.2500
  48.83   272.11 0.2250 0.2250   207.92 0.2500
  50.83   272.00 0.2250 0.2250   207.71 0.2500
  52.92   271.90 0.2250 0.2250   207.51 0.2500
  55.11   271.81 0.2250 0.2250   207.32 0.2500
  57.43   271.72 0.2250 0.2250   207.14 0.2500
  59.90   271.64 0.2250 0.2250   206.97 0.2500
  62.58   271.56 0.2250 0.2250   206.82 0.2500
  65.52   271.49 0.2250 0.2250   206.67 0.2500
  68.84   271.43 0.2250 0.2250   206.55 0.2500
  72.76   271.37 0.2250 0.2250   206.43 0.2500
  77.83   271.29 0.2250 0.2250   206.28 0.2500
  90.00   271.07 0.2250 0.2250   205.84 0.2500
