# Name of benchmark/experiment: FILLET Experiment 1 (warm start)
# Case number: 36
# Instellation (S_earth): 1.225
# XCO2 (ppm): 280.0
# Obliquity (degrees): 10.0
# Mode: seasonal
#
# Columns of data (annually averaged for last orbit)
# Lat Tsurf Asurf ATOA OLR Fland
 -90.00   279.87 0.2250 0.2250   223.44 0.2500
 -77.83   286.81 0.2250 0.2250   237.33 0.2500
 -72.76   291.23 0.2250 0.2250   246.16 0.2500
 -68.84   294.98 0.2250 0.2250   253.66 0.2500
 -65.52   298.35 0.2250 0.2250   260.40 0.2500
 -62.58   301.45 0.2250 0.2250   266.59 0.2500
 -59.90   304.33 0.2250 0.2250   272.36 0.2500
 -57.43   307.03 0.2250 0.2250   277.77 0.2500
 -55.11   309.58 0.2250 0.2250   282.86 0.2500
 -52.92   311.99 0.2250 0.2250   287.68 0.2500
 -50.83   314.28 0.2250 0.2250   292.25 0.2500
 -48.83   316.45 0.2250 0.2250   296.59 0.2500
 -46.91   318.51 0.2250 0.2250   300.72 0.2500
 -45.06   320.47 0.2250 0.2250   304.65 0.2500
 -43.27   322.34 0.2250 0.2250   308.39 0.2500
 -41.52   324.13 0.2250 0.2250   311.95 0.2500
 -39.83   325.82 0.2250 0.2250   315.35 0.2500
 -38.17   327.44 0.2250 0.2250   318.58 0.2500
 -36.55   328.98 0.2250 0.2250   321.66 0.2500
 -34.96   330.44 0.2250 0.2250   324.59 0.2500
 -33.41   331.84 0.2250 0.2250   327.38 0.2500
 -31.88   333.16 0.2250 0.2250   330.02 0.2500
 -30.37   334.42 0.2250 0.2250   332.54 0.2500
 -28.89   335.61 0.2250 0.2250   334.92 0.2500
 -27.43   336.74 0.2250 0.2250   337.18 0.2500
 -25.99   337.81 0.2250 0.2250   339.31 0.2500
 -24.57   338.81 0.2250 0.2250   341.32 0.2500
 -23.16   339.76 0.2250 0.2250   343.22 0.2500
 -21.76   340.65 0.2250 0.2250   344.99 0.2500
 -20.38   341.48 0.2250 0.2250   346.66 0.2500
 -19.02   342.25 0.2250 0.2250   348.21 0.2500
 -17.66   342.97 0.2250 0.2250   349.64 0.2500
 -16.31   343.64 0.2250 0.2250   350.98 0.2500
 -14.98   344.25 0.2250 0.2250   352.20 0.2500
 -13.65   344.81 0.2250 0.2250   353.32 0.2500
 -12.33   345.31 0.2250 0.2250   354.33 0.2500
 -11.01   345.77 0.2250 0.2250   355.24 0.2500
  -9.70   346.17 0.2250 0.2250   356.04 0.2500
  -8.40   346.52 0.2250 0.2250   356.74 0.2500
  -7.10   346.82 0.2250 0.2250   357.35 0.2500
  -5.80   347.07 0.2250 0.2250   357.85 0.2500
  -4.51   347.27 0.2250 0.2250   358.25 0.2500
  -3.22   347.42 0.2250 0.2250   358.54 0.2500
  -1.93   347.52 0.2250 0.2250   358.74 0.2500
  -0.64   347.57 0.2250 0.2250   358.84 0.2500
   0.64   347.57 0.2250 0.2250   358.84 0.2500
   1.93   347.52 0.2250 0.2250   358.74 0.2500
   3.22   347.42 0.2250 0.2250   358.54 0.2500
   4.51   347.27 0.2250 0.2250   358.25 0.2500
   5.80   347.07 0.2250 0.2250   357.85 0.2500
   7.10   346.82 0.2250 0.2250   357.35 0.2500
   8.40   346.52 0.2250 0.2250   356.74 0.2500
   9.70   346.17 0.2250 0.2250   356.04 0.2500
  11.01   345.77 0.2250 0.2250   355.24 0.2500
  12.33   345.31 0.2250 0.2250   354.33 0.2500
  13.65   344.81 0.2250 0.2250   353.32 0.2500
  14.98   344.25 0.2250 0.2250   352.20 0.2500
  16.31   343.64 0.2250 0.2250   350.98 0.2500
  17.66   342.97 0.2250 0.2250   349.64 0.2500
  19.02   342.25 0.2250 0.2250   348.21 0.2500
  20.38   341.48 0.2250 0.2250   346.66 0.2500
  21.76   340.65 0.2250 0.2250   344.99 0.2500
  23.16   339.76 0.2250 0.2250   343.22 0.2500
  24.57   338.81 0.2250 0.2250   341.32 0.2500
  25.99   337.81 0.2250 0.2250   339.31 0.2500
  27.43   336.74 0.2250 0.2250   337.18 0.2500
  28.89   335.61 0.2250 0.2250   334.92 0.2500
  30.37   334.42 0.2250 0.2250   332.54 0.2500
  31.88   333.16 0.2250 0.2250   330.02 0.2500
  33.41   331.84 0.2250 0.2250   327.38 0.2500
  34.96   330.44 0.2250 0.2250   324.59 0.2500
  36.55   328.98 0.2250 0.2250   321.66 0.2500
  38.17   327.44 0.2250 0.2250   318.58 0.2500
  39.83   325.82 0.2250 0.2250   315.35 0.2500
  41.52   324.13 0.2250 0.2250   311.95 0.2500
  43.27   322.34 0.2250 0.2250   308.39 0.2500
  45.06   320.47 0.2250 0.2250   304.65 0.2500
  46.91   318.51 0.2250 0.2250   300.72 0.2500
  48.83   316.45 0.2250 0.2250   296.59 0.2500
  50.83   314.28 0.2250 0.2250   292.25 0.2500
  52.92   311.99 0.2250 0.2250   287.68 0.2500
  55.11   309.58 0.2250 0.2250   282.86 0.2500
  57.43   307.03 0.2250 0.2250   277.77 0.2500
  59.90   304.33 0.2250 0.2250   272.36 0.2500
  62.58   301.45 0.2250 0.2250   266.59 0.2500
  65.52   298.35 0.2250 0.2250   260.40 0.2500
  68.84   294.98 0.2250 0.2250   253.66 0.2500
  72.76   291.23 0.2250 0.2250   246.16 0.2500
  77.83   286.81 0.2250 0.2250   237.33 0.2500
  90.00   279.87 0.2250 0.2250   223.44 0.2500
