# Name of benchmark/experiment: FILLET Experiment 1 (warm start)
# Case number: 42
# Instellation (S_earth): 0.9
# XCO2 (ppm): 280.0
# Obliquity (degrees): 20.0
# Mode: seasonal
#
# Columns of data (annually averaged for last orbit)
# Lat Tsurf Asurf ATOA OLR Fland
 -90.00   240.74 0.6000 0.6000   145.19 0.2500
 -77.83   244.95 0.6000 0.6000   153.60 0.2500
 -72.76   247.83 0.6000 0.6000   159.37 0.2500
 -68.84   250.49 0.6000 0.6000   164.68 0.2500
 -65.52   253.06 0.6000 0.6000   169.82 0.2500
 -62.58   255.59 0.6000 0.6000   174.89 0.2500
 -59.90   258.11 0.6000 0.6000   179.93 0.2500
 -57.43   260.63 0.6000 0.6000   184.96 0.2500
 -55.11   263.16 0.4125 0.4125   190.02 0.2500
 -52.92   265.59 0.2250 0.2250   194.88 0.2500
 -50.83   267.82 0.2250 0.2250   199.33 0.2500
 -48.83   269.87 0.2250 0.2250   203.44 0.2500
 -46.91   271.77 0.2250 0.2250   207.24 0.2500
 -45.06   273.54 0.2250 0.2250   210.79 0.2500
 -43.27   275.20 0.2250 0.2250   214.11 0.2500
 -41.52   276.76 0.2250 0.2250   217.21 0.2500
 -39.83   278.22 0.2250 0.2250   220.13 0.2500
 -38.17   279.59 0.2250 0.2250   222.88 0.2500
 -36.55   280.89 0.2250 0.2250   225.47 0.2500
 -34.96   282.11 0.2250 0.2250   227.91 0.2500
 -33.41   283.26 0.2250 0.2250   230.21 0.2500
 -31.88   284.34 0.2250 0.2250   232.38 0.2500
 -30.37   285.36 0.2250 0.2250   234.43 0.2500
 -28.89   286.33 0.2250 0.2250   236.36 0.2500
 -27.43   287.24 0.2250 0.2250   238.17 0.2500
 -25.99   288.09 0.2250 0.2250   239.88 0.2500
 -24.57   288.89 0.2250 0.2250   241.48 0.2500
 -23.16   289.64 0.2250 0.2250   242.98 0.2500
 -21.76   290.34 0.2250 0.2250   244.38 0.2500
 -20.38   291.00 0.2250 0.2250   245.69 0.2500
 -19.02   291.60 0.2250 0.2250   246.91 0.2500
 -17.66   292.17 0.2250 0.2250   248.03 0.2500
 -16.31   292.69 0.2250 0.2250   249.07 0.2500
 -14.98   293.16 0.2250 0.2250   250.03 0.2500
 -13.65   293.60 0.2250 0.2250   250.89 0.2500
 -12.33   293.99 0.2250 0.2250   251.68 0.2500
 -11.01   294.34 0.2250 0.2250   252.38 0.2500
  -9.70   294.65 0.2250 0.2250   253.01 0.2500
  -8.40   294.92 0.2250 0.2250   253.55 0.2500
  -7.10   295.16 0.2250 0.2250   254.01 0.2500
  -5.80   295.35 0.2250 0.2250   254.40 0.2500
  -4.51   295.50 0.2250 0.2250   254.71 0.2500
  -3.22   295.62 0.2250 0.2250   254.94 0.2500
  -1.93   295.70 0.2250 0.2250   255.09 0.2500
  -0.64   295.73 0.2250 0.2250   255.17 0.2500
   0.64   295.73 0.2250 0.2250   255.17 0.2500
   1.93   295.70 0.2250 0.2250   255.09 0.2500
   3.22   295.62 0.2250 0.2250   254.94 0.2500
   4.51   295.50 0.2250 0.2250   254.71 0.2500
   5.80   295.35 0.2250 0.2250   254.40 0.2500
   7.10   295.16 0.2250 0.2250   254.01 0.2500
   8.40   294.92 0.2250 0.2250   253.55 0.2500
   9.70   294.65 0.2250 0.2250   253.01 0.2500
  11.01   294.34 0.2250 0.2250   252.38 0.2500
  12.33   293.99 0.2250 0.2250   251.68 0.2500
  13.65   293.60 0.2250 0.2250   250.89 0.2500
  14.98   293.16 0.2250 0.2250   250.03 0.2500
  16.31   292.69 0.2250 0.2250   249.07 0.2500
  17.66   292.17 0.2250 0.2250   248.03 0.2500
  19.02   291.60 0.2250 0.2250   246.91 0.2500
  20.38   291.00 0.2250 0.2250   245.69 0.2500
  21.76   290.34 0.2250 0.2250   244.38 0.2500
  23.16   289.64 0.2250 0.2250   242.98 0.2500
  24.57   288.89 0.2250 0.2250   241.48 0.2500
  25.99   288.09 0.2250 0.2250   239.88 0.2500
  27.43   287.24 0.2250 0.2250   238.17 0.2500
  28.89   286.33 0.2250 0.2250   236.36 0.2500
  30.37   285.36 0.2250 0.2250   234.43 0.2500
  31.88   284.34 0.2250 0.2250   232.38 0.2500
  33.41   283.26 0.2250 0.2250   230.21 0.2500
  34.96   282.11 0.2250 0.2250   227.91 0.2500
  36.55   280.89 0.2250 0.2250   225.47 0.2500
  38.17   279.59 0.2250 0.2250   222.88 0.2500
  39.83   278.22 0.2250 0.2250   220.13 0.2500
  41.52   276.76 0.2250 0.2250   217.21 0.2500
  43.27   275.20 0.2250 0.2250   214.11 0.2500
  45.06   273.54 0.2250 0.2250   210.79 0.2500
  46.91   271.77 0.2250 0.2250   207.24 0.2500
  48.83   269.87 0.2250 0.2250   203.44 0.2500
  50.83   267.82 0.2250 0.2250   199.33 0.2500
  52.92   265.59 0.2250 0.2250   194.88 0.2500
  55.11   263.16 0.4125 0.4125   190.02 0.2500
  57.43   260.63 0.6000 0.6000   184.96 0.2500
  59.90   258.11 0.6000 0.6000   179.93 0.2500
  62.58   255.59 0.6000 0.6000   174.89 0.2500
  65.52   253.06 0.6000 0.6000   169.82 0.2500
  68.84   250.49 0.6000 0.6000   164.68 0.2500
  72.76   247.83 0.6000 0.6000   159.37 0.2500
  77.83   244.95 0.6000 0.6000   153.60 0.2500
  90.00   240.74 0.6000 0.6000   145.19 0.2500
