# Name of benchmark/experiment: FILLET Experiment 1 (warm start)
# Case number: 143
# Instellation (S_earth): 1.05
# XCO2 (ppm): 280.0
# Obliquity (degrees): 70.0
# Mode: seasonal
#
# Columns of data (annually averaged for last orbit)
# Lat Tsurf Asurf ATOA OLR Fland
 -90.00   318.52 0.2250 0.2250   300.75 0.2500
 -77.83   317.49 0.2250 0.2250   298.67 0.2500
 -72.76   316.68 0.2250 0.2250   297.06 0.2500
 -68.84   315.92 0.2250 0.2250   295.53 0.2500
 -65.52   315.18 0.2250 0.2250   294.06 0.2500
 -62.58   314.47 0.2250 0.2250   292.64 0.2500
 -59.90   313.79 0.2250 0.2250   291.28 0.2500
 -57.43   313.13 0.2250 0.2250   289.97 0.2500
 -55.11   312.50 0.2250 0.2250   288.70 0.2500
 -52.92   311.88 0.2250 0.2250   287.46 0.2500
 -50.83   311.28 0.2250 0.2250   286.26 0.2500
 -48.83   310.70 0.2250 0.2250   285.09 0.2500
 -46.91   310.12 0.2250 0.2250   283.95 0.2500
 -45.06   309.57 0.2250 0.2250   282.83 0.2500
 -43.27   309.02 0.2250 0.2250   281.74 0.2500
 -41.52   308.49 0.2250 0.2250   280.69 0.2500
 -39.83   307.98 0.2250 0.2250   279.66 0.2500
 -38.17   307.48 0.2250 0.2250   278.67 0.2500
 -36.55   307.00 0.2250 0.2250   277.71 0.2500
 -34.96   306.54 0.2250 0.2250   276.78 0.2500
 -33.41   306.10 0.2250 0.2250   275.90 0.2500
 -31.88   305.68 0.2250 0.2250   275.06 0.2500
 -30.37   305.28 0.2250 0.2250   274.26 0.2500
 -28.89   304.90 0.2250 0.2250   273.50 0.2500
 -27.43   304.54 0.2250 0.2250   272.77 0.2500
 -25.99   304.19 0.2250 0.2250   272.08 0.2500
 -24.57   303.87 0.2250 0.2250   271.44 0.2500
 -23.16   303.56 0.2250 0.2250   270.82 0.2500
 -21.76   303.27 0.2250 0.2250   270.25 0.2500
 -20.38   303.01 0.2250 0.2250   269.71 0.2500
 -19.02   302.76 0.2250 0.2250   269.21 0.2500
 -17.66   302.53 0.2250 0.2250   268.75 0.2500
 -16.31   302.31 0.2250 0.2250   268.33 0.2500
 -14.98   302.12 0.2250 0.2250   267.94 0.2500
 -13.65   301.94 0.2250 0.2250   267.59 0.2500
 -12.33   301.78 0.2250 0.2250   267.27 0.2500
 -11.01   301.64 0.2250 0.2250   266.99 0.2500
  -9.70   301.52 0.2250 0.2250   266.74 0.2500
  -8.40   301.41 0.2250 0.2250   266.52 0.2500
  -7.10   301.32 0.2250 0.2250   266.33 0.2500
  -5.80   301.24 0.2250 0.2250   266.18 0.2500
  -4.51   301.18 0.2250 0.2250   266.06 0.2500
  -3.22   301.13 0.2250 0.2250   265.97 0.2500
  -1.93   301.10 0.2250 0.2250   265.91 0.2500
  -0.64   301.09 0.2250 0.2250   265.88 0.2500
   0.64   301.09 0.2250 0.2250   265.88 0.2500
   1.93   301.10 0.2250 0.2250   265.91 0.2500
   3.22   301.13 0.2250 0.2250   265.97 0.2500
   4.51   301.18 0.2250 0.2250   266.06 0.2500
   5.80   301.24 0.2250 0.2250   266.18 0.2500
   7.10   301.32 0.2250 0.2250   266.33 0.2500
   8.40   301.41 0.2250 0.2250   266.52 0.2500
   9.70   301.52 0.2250 0.2250   266.74 0.2500
  11.01   301.64 0.2250 0.2250   266.99 0.2500
  12.33   301.78 0.2250 0.2250   267.27 0.2500
  13.65   301.94 0.2250 0.2250   267.59 0.2500
  14.98   302.12 0.2250 0.2250   267.94 0.2500
  16.31   302.31 0.2250 0.2250   268.33 0.2500
  17.66   302.53 0.2250 0.2250   268.75 0.2500
  19.02   302.76 0.2250 0.2250   269.21 0.2500
  20.38   303.01 0.2250 0.2250   269.71 0.2500
  21.76   303.27 0.2250 0.2250   270.25 0.2500
  23.16   303.56 0.2250 0.2250   270.82 0.2500
  24.57   303.87 0.2250 0.2250   271.44 0.2500
  25.99   304.19 0.2250 0.2250   272.08 0.2500
  27.43   304.54 0.2250 0.2250   272.77 0.2500
  28.89   304.90 0.2250 0.2250   273.50 0.2500
  30.37   305.28 0.2250 0.2250   274.26 0.2500
  31.88   305.68 0.2250 0.2250   275.06 0.2500
  33.41   306.10 0.2250 0.2250   275.90 0.2500
  34.96   306.54 0.2250 0.2250   276.78 0.2500
  36.55   307.00 0.2250 0.2250   277.71 0.2500
  38.17   307.48 0.2250 0.2250   278.67 0.2500
  39.83   307.98 0.2250 0.2250   279.66 0.2500
  41.52   308.49 0.2250 0.2250   280.69 0.2500
  43.27   309.02 0.2250 0.2250   281.74 0.2500
  45.06   309.57 0.2250 0.2250   282.83 0.2500
  46.91   310.12 0.2250 0.2250   283.95 0.2500
  48.83   310.70 0.2250 0.2250   285.09 0.2500
  50.83   311.28 0.2250 0.2250   286.26 0.2500
  52.92   311.88 0.2250 0.2250   287.46 0.2500
  55.11   312.50 0.2250 0.2250   288.70 0.2500
  57.43   313.13 0.2250 0.2250   289.97 0.2500
  59.90   313.79 0.2250 0.2250   291.28 0.2500
  62.58   314.47 0.2250 0.2250   292.64 0.2500
  65.52   315.18 0.2250 0.2250   294.06 0.2500
  68.84   315.92 0.2250 0.2250   295.53 0.2500
  72.76   316.68 0.2250 0.2250   297.06 0.2500
  77.83   317.49 0.2250 0.2250   298.67 0.2500
  90.00   318.52 0.2250 0.2250   300.75 0.2500
