# Name of benchmark/experiment: FILLET Experiment 2a (cold start, au)
# Case number: 19
# Instellation (S_earth): 1.384083
# XCO2 (ppm): 280.0
# Obliquity (degrees): 10.0
# Mode: seasonal
#
# Columns of data (annually averaged for last orbit)
# Lat Tsurf Asurf ATOA OLR Fland
 -90.00   294.38 0.2250 0.2250   252.45 0.2500
 -77.83   302.22 0.2250 0.2250   268.15 0.2500
 -72.76   307.22 0.2250 0.2250   278.13 0.2500
 -68.84   311.45 0.2250 0.2250   286.60 0.2500
 -65.52   315.26 0.2250 0.2250   294.21 0.2500
 -62.58   318.76 0.2250 0.2250   301.21 0.2500
 -59.90   322.01 0.2250 0.2250   307.73 0.2500
 -57.43   325.07 0.2250 0.2250   313.84 0.2500
 -55.11   327.95 0.2250 0.2250   319.60 0.2500
 -52.92   330.67 0.2250 0.2250   325.04 0.2500
 -50.83   333.25 0.2250 0.2250   330.21 0.2500
 -48.83   335.71 0.2250 0.2250   335.11 0.2500
 -46.91   338.04 0.2250 0.2250   339.77 0.2500
 -45.06   340.26 0.2250 0.2250   344.21 0.2500
 -43.27   342.37 0.2250 0.2250   348.44 0.2500
 -41.52   344.38 0.2250 0.2250   352.46 0.2500
 -39.83   346.30 0.2250 0.2250   356.30 0.2500
 -38.17   348.13 0.2250 0.2250   359.95 0.2500
 -36.55   349.87 0.2250 0.2250   363.43 0.2500
 -34.96   351.52 0.2250 0.2250   366.74 0.2500
 -33.41   353.10 0.2250 0.2250   369.89 0.2500
 -31.88   354.59 0.2250 0.2250   372.88 0.2500
 -30.37   356.01 0.2250 0.2250   375.72 0.2500
 -28.89   357.36 0.2250 0.2250   378.42 0.2500
 -27.43   358.63 0.2250 0.2250   380.97 0.2500
 -25.99   359.84 0.2250 0.2250   383.38 0.2500
 -24.57   360.97 0.2250 0.2250   385.65 0.2500
 -23.16   362.04 0.2250 0.2250   387.79 0.2500
 -21.76   363.05 0.2250 0.2250   389.79 0.2500
 -20.38   363.99 0.2250 0.2250   391.67 0.2500
 -19.02   364.86 0.2250 0.2250   393.42 0.2500
 -17.66   365.68 0.2250 0.2250   395.05 0.2500
 -16.31   366.43 0.2250 0.2250   396.55 0.2500
 -14.98   367.12 0.2250 0.2250   397.94 0.2500
 -13.65   367.75 0.2250 0.2250   399.20 0.2500
 -12.33   368.32 0.2250 0.2250   400.34 0.2500
 -11.01   368.83 0.2250 0.2250   401.37 0.2500
  -9.70   369.29 0.2250 0.2250   402.28 0.2500
  -8.40   369.69 0.2250 0.2250   403.07 0.2500
  -7.10   370.03 0.2250 0.2250   403.75 0.2500
  -5.80   370.31 0.2250 0.2250   404.32 0.2500
  -4.51   370.53 0.2250 0.2250   404.77 0.2500
  -3.22   370.70 0.2250 0.2250   405.11 0.2500
  -1.93   370.82 0.2250 0.2250   405.33 0.2500
  -0.64   370.87 0.2250 0.2250   405.44 0.2500
   0.64   370.87 0.2250 0.2250   405.44 0.2500
   1.93   370.82 0.2250 0.2250   405.33 0.2500
   3.22   370.70 0.2250 0.2250   405.11 0.2500
   4.51   370.53 0.2250 0.2250   404.77 0.2500
   5.80   370.31 0.2250 0.2250   404.32 0.2500
   7.10   370.03 0.2250 0.2250   403.75 0.2500
   8.40   369.69 0.2250 0.2250   403.07 0.2500
   9.70   369.29 0.2250 0.2250   402.28 0.2500
  11.01   368.83 0.2250 0.2250   401.37 0.2500
  12.33   368.32 0.2250 0.2250   400.34 0.2500
  13.65   367.75 0.2250 0.2250   399.20 0.2500
  14.98   367.12 0.2250 0.2250   397.94 0.2500
  16.31   366.43 0.2250 0.2250   396.55 0.2500
  17.66   365.68 0.2250 0.2250   395.05 0.2500
  19.02   364.86 0.2250 0.2250   393.42 0.2500
  20.38   363.99 0.2250 0.2250   391.67 0.2500
  21.76   363.05 0.2250 0.2250   389.79 0.2500
  23.16   362.04 0.2250 0.2250   387.79 0.2500
  24.57   360.97 0.2250 0.2250   385.65 0.2500
  25.99   359.84 0.2250 0.2250   383.38 0.2500
  27.43   358.63 0.2250 0.2250   380.97 0.2500
  28.89   357.36 0.2250 0.2250   378.42 0.2500
  30.37   356.01 0.2250 0.2250   375.72 0.2500
  31.88   354.59 0.2250 0.2250   372.88 0.2500
  33.41   353.10 0.2250 0.2250   369.89 0.2500
  34.96   351.52 0.2250 0.2250   366.74 0.2500
  36.55   349.87 0.2250 0.2250   363.43 0.2500
  38.17   348.13 0.2250 0.2250   359.95 0.2500
  39.83   346.30 0.2250 0.2250   356.30 0.2500
  41.52   344.38 0.2250 0.2250   352.46 0.2500
  43.27   342.37 0.2250 0.2250   348.44 0.2500
  45.06   340.26 0.2250 0.2250   344.21 0.2500
  46.91   338.04 0.2250 0.2250   339.77 0.2500
  48.83   335.71 0.2250 0.2250   335.11 0.2500
  50.83   333.25 0.2250 0.2250   330.21 0.2500
  52.92   330.67 0.2250 0.2250   325.04 0.2500
  55.11   327.95 0.2250 0.2250   319.60 0.2500
  57.43   325.07 0.2250 0.2250   313.84 0.2500
  59.90   322.01 0.2250 0.2250   307.73 0.2500
  62.58   318.76 0.2250 0.2250   301.21 0.2500
  65.52   315.26 0.2250 0.2250   294.21 0.2500
  68.84   311.45 0.2250 0.2250   286.60 0.2500
  72.76   307.22 0.2250 0.2250   278.13 0.2500
  77.83   302.22 0.2250 0.2250   268.15 0.2500
  90.00   294.38 0.2250 0.2250   252.45 0.2500
