# Name of benchmark/experiment: FILLET Experiment 2a (cold start, au)
# Case number: 50
# Instellation (S_earth): 1.344255
# XCO2 (ppm): 280.0
# Obliquity (degrees): 30.0
# Mode: seasonal
#
# Columns of data (annually averaged for last orbit)
# Lat Tsurf Asurf ATOA OLR Fland
 -90.00   314.54 0.2250 0.2250   292.79 0.2500
 -77.83   317.81 0.2250 0.2250   299.33 0.2500
 -72.76   319.95 0.2250 0.2250   303.60 0.2500
 -68.84   321.87 0.2250 0.2250   307.45 0.2500
 -65.52   323.70 0.2250 0.2250   311.10 0.2500
 -62.58   325.47 0.2250 0.2250   314.63 0.2500
 -59.90   327.19 0.2250 0.2250   318.08 0.2500
 -57.43   328.87 0.2250 0.2250   321.45 0.2500
 -55.11   330.52 0.2250 0.2250   324.73 0.2500
 -52.92   332.11 0.2250 0.2250   327.93 0.2500
 -50.83   333.67 0.2250 0.2250   331.03 0.2500
 -48.83   335.17 0.2250 0.2250   334.04 0.2500
 -46.91   336.62 0.2250 0.2250   336.95 0.2500
 -45.06   338.03 0.2250 0.2250   339.76 0.2500
 -43.27   339.39 0.2250 0.2250   342.47 0.2500
 -41.52   340.69 0.2250 0.2250   345.09 0.2500
 -39.83   341.95 0.2250 0.2250   347.61 0.2500
 -38.17   343.16 0.2250 0.2250   350.03 0.2500
 -36.55   344.32 0.2250 0.2250   352.35 0.2500
 -34.96   345.44 0.2250 0.2250   354.58 0.2500
 -33.41   346.51 0.2250 0.2250   356.71 0.2500
 -31.88   347.52 0.2250 0.2250   358.75 0.2500
 -30.37   348.50 0.2250 0.2250   360.70 0.2500
 -28.89   349.43 0.2250 0.2250   362.55 0.2500
 -27.43   350.31 0.2250 0.2250   364.32 0.2500
 -25.99   351.15 0.2250 0.2250   365.99 0.2500
 -24.57   351.94 0.2250 0.2250   367.58 0.2500
 -23.16   352.69 0.2250 0.2250   369.07 0.2500
 -21.76   353.39 0.2250 0.2250   370.48 0.2500
 -20.38   354.05 0.2250 0.2250   371.80 0.2500
 -19.02   354.67 0.2250 0.2250   373.04 0.2500
 -17.66   355.25 0.2250 0.2250   374.19 0.2500
 -16.31   355.78 0.2250 0.2250   375.26 0.2500
 -14.98   356.27 0.2250 0.2250   376.24 0.2500
 -13.65   356.72 0.2250 0.2250   377.14 0.2500
 -12.33   357.13 0.2250 0.2250   377.96 0.2500
 -11.01   357.49 0.2250 0.2250   378.69 0.2500
  -9.70   357.82 0.2250 0.2250   379.34 0.2500
  -8.40   358.10 0.2250 0.2250   379.91 0.2500
  -7.10   358.35 0.2250 0.2250   380.39 0.2500
  -5.80   358.55 0.2250 0.2250   380.80 0.2500
  -4.51   358.71 0.2250 0.2250   381.12 0.2500
  -3.22   358.83 0.2250 0.2250   381.37 0.2500
  -1.93   358.91 0.2250 0.2250   381.53 0.2500
  -0.64   358.95 0.2250 0.2250   381.61 0.2500
   0.64   358.95 0.2250 0.2250   381.61 0.2500
   1.93   358.91 0.2250 0.2250   381.53 0.2500
   3.22   358.83 0.2250 0.2250   381.37 0.2500
   4.51   358.71 0.2250 0.2250   381.12 0.2500
   5.80   358.55 0.2250 0.2250   380.80 0.2500
   7.10   358.35 0.2250 0.2250   380.39 0.2500
   8.40   358.10 0.2250 0.2250   379.91 0.2500
   9.70   357.82 0.2250 0.2250   379.34 0.2500
  11.01   357.49 0.2250 0.2250   378.69 0.2500
  12.33   357.13 0.2250 0.2250   377.96 0.2500
  13.65   356.72 0.2250 0.2250   377.14 0.2500
  14.98   356.27 0.2250 0.2250   376.24 0.2500
  16.31   355.78 0.2250 0.2250   375.26 0.2500
  17.66   355.25 0.2250 0.2250   374.19 0.2500
  19.02   354.67 0.2250 0.2250   373.04 0.2500
  20.38   354.05 0.2250 0.2250   371.80 0.2500
  21.76   353.39 0.2250 0.2250   370.48 0.2500
  23.16   352.69 0.2250 0.2250   369.07 0.2500
  24.57   351.94 0.2250 0.2250   367.58 0.2500
  25.99   351.15 0.2250 0.2250   365.99 0.2500
  27.43   350.31 0.2250 0.2250   364.32 0.2500
  28.89   349.43 0.2250 0.2250   362.55 0.2500
  30.37   348.50 0.2250 0.2250   360.70 0.2500
  31.88   347.52 0.2250 0.2250   358.75 0.2500
  33.41   346.51 0.2250 0.2250   356.71 0.2500
  34.96   345.44 0.2250 0.2250   354.58 0.2500
  36.55   344.32 0.2250 0.2250   352.35 0.2500
  38.17   343.16 0.2250 0.2250   350.03 0.2500
  39.83   341.95 0.2250 0.2250   347.61 0.2500
  41.52   340.69 0.2250 0.2250   345.09 0.2500
  43.27   339.39 0.2250 0.2250   342.47 0.2500
  45.06   338.03 0.2250 0.2250   339.76 0.2500
  46.91   336.62 0.2250 0.2250   336.95 0.2500
  48.83   335.17 0.2250 0.2250   334.04 0.2500
  50.83   333.67 0.2250 0.2250   331.03 0.2500
  52.92   332.11 0.2250 0.2250   327.93 0.2500
  55.11   330.52 0.2250 0.2250   324.73 0.2500
  57.43   328.87 0.2250 0.2250   321.45 0.2500
  59.90   327.19 0.2250 0.2250   318.08 0.2500
  62.58   325.47 0.2250 0.2250   314.63 0.2500
  65.52   323.70 0.2250 0.2250   311.10 0.2500
  68.84   321.87 0.2250 0.2250   307.45 0.2500
  72.76   319.95 0.2250 0.2250   303.60 0.2500
  77.83   317.81 0.2250 0.2250   299.33 0.2500
  90.00   314.54 0.2250 0.2250   292.79 0.2500
