# Name of benchmark/experiment: FILLET Experiment 2a (cold start, au)
# Case number: 109
# Instellation (S_earth): 1.384083
# XCO2 (ppm): 280.0
# Obliquity (degrees): 70.0
# Mode: seasonal
#
# Columns of data (annually averaged for last orbit)
# Lat Tsurf Asurf ATOA OLR Fland
 -90.00   366.37 0.2250 0.2250   396.44 0.2500
 -77.83   365.00 0.2250 0.2250   393.70 0.2500
 -72.76   363.94 0.2250 0.2250   391.57 0.2500
 -68.84   362.93 0.2250 0.2250   389.56 0.2500
 -65.52   361.96 0.2250 0.2250   387.62 0.2500
 -62.58   361.03 0.2250 0.2250   385.75 0.2500
 -59.90   360.13 0.2250 0.2250   383.96 0.2500
 -57.43   359.26 0.2250 0.2250   382.22 0.2500
 -55.11   358.43 0.2250 0.2250   380.55 0.2500
 -52.92   357.61 0.2250 0.2250   378.93 0.2500
 -50.83   356.82 0.2250 0.2250   377.34 0.2500
 -48.83   356.05 0.2250 0.2250   375.80 0.2500
 -46.91   355.30 0.2250 0.2250   374.29 0.2500
 -45.06   354.56 0.2250 0.2250   372.82 0.2500
 -43.27   353.84 0.2250 0.2250   371.39 0.2500
 -41.52   353.15 0.2250 0.2250   369.99 0.2500
 -39.83   352.47 0.2250 0.2250   368.64 0.2500
 -38.17   351.82 0.2250 0.2250   367.33 0.2500
 -36.55   351.18 0.2250 0.2250   366.07 0.2500
 -34.96   350.58 0.2250 0.2250   364.85 0.2500
 -33.41   349.99 0.2250 0.2250   363.69 0.2500
 -31.88   349.44 0.2250 0.2250   362.58 0.2500
 -30.37   348.91 0.2250 0.2250   361.52 0.2500
 -28.89   348.41 0.2250 0.2250   360.51 0.2500
 -27.43   347.93 0.2250 0.2250   359.56 0.2500
 -25.99   347.48 0.2250 0.2250   358.65 0.2500
 -24.57   347.05 0.2250 0.2250   357.80 0.2500
 -23.16   346.65 0.2250 0.2250   356.99 0.2500
 -21.76   346.27 0.2250 0.2250   356.24 0.2500
 -20.38   345.91 0.2250 0.2250   355.53 0.2500
 -19.02   345.58 0.2250 0.2250   354.87 0.2500
 -17.66   345.28 0.2250 0.2250   354.26 0.2500
 -16.31   345.00 0.2250 0.2250   353.70 0.2500
 -14.98   344.75 0.2250 0.2250   353.19 0.2500
 -13.65   344.51 0.2250 0.2250   352.73 0.2500
 -12.33   344.30 0.2250 0.2250   352.31 0.2500
 -11.01   344.12 0.2250 0.2250   351.94 0.2500
  -9.70   343.95 0.2250 0.2250   351.61 0.2500
  -8.40   343.81 0.2250 0.2250   351.32 0.2500
  -7.10   343.69 0.2250 0.2250   351.08 0.2500
  -5.80   343.59 0.2250 0.2250   350.87 0.2500
  -4.51   343.51 0.2250 0.2250   350.71 0.2500
  -3.22   343.45 0.2250 0.2250   350.59 0.2500
  -1.93   343.41 0.2250 0.2250   350.51 0.2500
  -0.64   343.39 0.2250 0.2250   350.47 0.2500
   0.64   343.39 0.2250 0.2250   350.47 0.2500
   1.93   343.41 0.2250 0.2250   350.51 0.2500
   3.22   343.45 0.2250 0.2250   350.59 0.2500
   4.51   343.51 0.2250 0.2250   350.71 0.2500
   5.80   343.59 0.2250 0.2250   350.87 0.2500
   7.10   343.69 0.2250 0.2250   351.08 0.2500
   8.40   343.81 0.2250 0.2250   351.32 0.2500
   9.70   343.95 0.2250 0.2250   351.61 0.2500
  11.01   344.12 0.2250 0.2250   351.94 0.2500
  12.33   344.30 0.2250 0.2250   352.31 0.2500
  13.65   344.51 0.2250 0.2250   352.73 0.2500
  14.98   344.75 0.2250 0.2250   353.19 0.2500
  16.31   345.00 0.2250 0.2250   353.70 0.2500
  17.66   345.28 0.2250 0.2250   354.26 0.2500
  19.02   345.58 0.2250 0.2250   354.87 0.2500
  20.38   345.91 0.2250 0.2250   355.53 0.2500
  21.76   346.27 0.2250 0.2250   356.24 0.2500
  23.16   346.65 0.2250 0.2250   356.99 0.2500
  24.57   347.05 0.2250 0.2250   357.80 0.2500
  25.99   347.48 0.2250 0.2250   358.65 0.2500
  27.43   347.93 0.2250 0.2250   359.56 0.2500
  28.89   348.41 0.2250 0.2250   360.51 0.2500
  30.37   348.91 0.2250 0.2250   361.52 0.2500
  31.88   349.44 0.2250 0.2250   362.58 0.2500
  33.41   349.99 0.2250 0.2250   363.69 0.2500
  34.96   350.58 0.2250 0.2250   364.85 0.2500
  36.55   351.18 0.2250 0.2250   366.07 0.2500
  38.17   351.82 0.2250 0.2250   367.33 0.2500
  39.83   352.47 0.2250 0.2250   368.64 0.2500
  41.52   353.15 0.2250 0.2250   369.99 0.2500
  43.27   353.84 0.2250 0.2250   371.39 0.2500
  45.06   354.56 0.2250 0.2250   372.82 0.2500
  46.91   355.30 0.2250 0.2250   374.29 0.2500
  48.83   356.05 0.2250 0.2250   375.80 0.2500
  50.83   356.82 0.2250 0.2250   377.34 0.2500
  52.92   357.61 0.2250 0.2250   378.93 0.2500
  55.11   358.43 0.2250 0.2250   380.55 0.2500
  57.43   359.26 0.2250 0.2250   382.22 0.2500
  59.90   360.13 0.2250 0.2250   383.96 0.2500
  62.58   361.03 0.2250 0.2250   385.75 0.2500
  65.52   361.96 0.2250 0.2250   387.62 0.2500
  68.84   362.93 0.2250 0.2250   389.56 0.2500
  72.76   363.94 0.2250 0.2250   391.57 0.2500
  77.83   365.00 0.2250 0.2250   393.70 0.2500
  90.00   366.37 0.2250 0.2250   396.44 0.2500
