# Name of benchmark/experiment: FILLET Experiment 2a (cold start, au)
# Case number: 128
# Instellation (S_earth): 1.234568
# XCO2 (ppm): 280.0
# Obliquity (degrees): 80.0
# Mode: seasonal
#
# Columns of data (annually averaged for last orbit)
# Lat Tsurf Asurf ATOA OLR Fland
 -90.00   349.83 0.2250 0.2250   363.37 0.2500
 -77.83   348.23 0.2250 0.2250   360.16 0.2500
 -72.76   347.01 0.2250 0.2250   357.73 0.2500
 -68.84   345.87 0.2250 0.2250   355.45 0.2500
 -65.52   344.77 0.2250 0.2250   353.24 0.2500
 -62.58   343.70 0.2250 0.2250   351.11 0.2500
 -59.90   342.67 0.2250 0.2250   349.03 0.2500
 -57.43   341.66 0.2250 0.2250   347.03 0.2500
 -55.11   340.69 0.2250 0.2250   345.08 0.2500
 -52.92   339.74 0.2250 0.2250   343.18 0.2500
 -50.83   338.82 0.2250 0.2250   341.33 0.2500
 -48.83   337.91 0.2250 0.2250   339.52 0.2500
 -46.91   337.02 0.2250 0.2250   337.74 0.2500
 -45.06   336.15 0.2250 0.2250   336.00 0.2500
 -43.27   335.30 0.2250 0.2250   334.30 0.2500
 -41.52   334.46 0.2250 0.2250   332.63 0.2500
 -39.83   333.65 0.2250 0.2250   330.99 0.2500
 -38.17   332.85 0.2250 0.2250   329.40 0.2500
 -36.55   332.07 0.2250 0.2250   327.84 0.2500
 -34.96   331.32 0.2250 0.2250   326.33 0.2500
 -33.41   330.58 0.2250 0.2250   324.86 0.2500
 -31.88   329.87 0.2250 0.2250   323.44 0.2500
 -30.37   329.19 0.2250 0.2250   322.08 0.2500
 -28.89   328.53 0.2250 0.2250   320.76 0.2500
 -27.43   327.90 0.2250 0.2250   319.50 0.2500
 -25.99   327.30 0.2250 0.2250   318.30 0.2500
 -24.57   326.73 0.2250 0.2250   317.15 0.2500
 -23.16   326.18 0.2250 0.2250   316.06 0.2500
 -21.76   325.66 0.2250 0.2250   315.01 0.2500
 -20.38   325.16 0.2250 0.2250   314.03 0.2500
 -19.02   324.70 0.2250 0.2250   313.10 0.2500
 -17.66   324.26 0.2250 0.2250   312.22 0.2500
 -16.31   323.85 0.2250 0.2250   311.40 0.2500
 -14.98   323.47 0.2250 0.2250   310.63 0.2500
 -13.65   323.11 0.2250 0.2250   309.93 0.2500
 -12.33   322.79 0.2250 0.2250   309.28 0.2500
 -11.01   322.49 0.2250 0.2250   308.69 0.2500
  -9.70   322.23 0.2250 0.2250   308.16 0.2500
  -8.40   322.00 0.2250 0.2250   307.70 0.2500
  -7.10   321.80 0.2250 0.2250   307.30 0.2500
  -5.80   321.64 0.2250 0.2250   306.97 0.2500
  -4.51   321.50 0.2250 0.2250   306.71 0.2500
  -3.22   321.40 0.2250 0.2250   306.51 0.2500
  -1.93   321.34 0.2250 0.2250   306.38 0.2500
  -0.64   321.31 0.2250 0.2250   306.31 0.2500
   0.64   321.31 0.2250 0.2250   306.31 0.2500
   1.93   321.34 0.2250 0.2250   306.38 0.2500
   3.22   321.40 0.2250 0.2250   306.51 0.2500
   4.51   321.50 0.2250 0.2250   306.71 0.2500
   5.80   321.64 0.2250 0.2250   306.97 0.2500
   7.10   321.80 0.2250 0.2250   307.30 0.2500
   8.40   322.00 0.2250 0.2250   307.70 0.2500
   9.70   322.23 0.2250 0.2250   308.16 0.2500
  11.01   322.49 0.2250 0.2250   308.69 0.2500
  12.33   322.79 0.2250 0.2250   309.28 0.2500
  13.65   323.11 0.2250 0.2250   309.93 0.2500
  14.98   323.47 0.2250 0.2250   310.63 0.2500
  16.31   323.85 0.2250 0.2250   311.40 0.2500
  17.66   324.26 0.2250 0.2250   312.22 0.2500
  19.02   324.70 0.2250 0.2250   313.10 0.2500
  20.38   325.16 0.2250 0.2250   314.03 0.2500
  21.76   325.66 0.2250 0.2250   315.01 0.2500
  23.16   326.18 0.2250 0.2250   316.06 0.2500
  24.57   326.73 0.2250 0.2250   317.15 0.2500
  25.99   327.30 0.2250 0.2250   318.30 0.2500
  27.43   327.90 0.2250 0.2250   319.50 0.2500
  28.89   328.53 0.2250 0.2250   320.76 0.2500
  30.37   329.19 0.2250 0.2250   322.08 0.2500
  31.88   329.87 0.2250 0.2250   323.44 0.2500
  33.41   330.58 0.2250 0.2250   324.86 0.2500
  34.96   331.32 0.2250 0.2250   326.33 0.2500
  36.55   332.07 0.2250 0.2250   327.84 0.2500
  38.17   332.85 0.2250 0.2250   329.40 0.2500
  39.83   333.65 0.2250 0.2250   330.99 0.2500
  41.52   334.46 0.2250 0.2250   332.63 0.2500
  43.27   335.30 0.2250 0.2250   334.30 0.2500
  45.06   336.15 0.2250 0.2250   336.00 0.2500
  46.91   337.02 0.2250 0.2250   337.74 0.2500
  48.83   337.91 0.2250 0.2250   339.52 0.2500
  50.83   338.82 0.2250 0.2250   341.33 0.2500
  52.92   339.74 0.2250 0.2250   343.18 0.2500
  55.11   340.69 0.2250 0.2250   345.08 0.2500
  57.43   341.66 0.2250 0.2250   347.03 0.2500
  59.90   342.67 0.2250 0.2250   349.03 0.2500
  62.58   343.70 0.2250 0.2250   351.11 0.2500
  65.52   344.77 0.2250 0.2250   353.24 0.2500
  68.84   345.87 0.2250 0.2250   355.45 0.2500
  72.76   347.01 0.2250 0.2250   357.73 0.2500
  77.83   348.23 0.2250 0.2250   360.16 0.2500
  90.00   349.83 0.2250 0.2250   363.37 0.2500
