# Name of benchmark/experiment: FILLET Experiment 2a (cold start, au)
# Case number: 20
# Instellation (S_earth): 1.344255
# XCO2 (ppm): 280.0
# Obliquity (degrees): 10.0
# Mode: seasonal
#
# Columns of data (annually averaged for last orbit)
# Lat Tsurf Asurf ATOA OLR Fland
 -90.00   290.74 0.2250 0.2250   245.19 0.2500
 -77.83   298.36 0.2250 0.2250   260.43 0.2500
 -72.76   303.21 0.2250 0.2250   270.13 0.2500
 -68.84   307.33 0.2250 0.2250   278.35 0.2500
 -65.52   311.02 0.2250 0.2250   285.75 0.2500
 -62.58   314.42 0.2250 0.2250   292.54 0.2500
 -59.90   317.59 0.2250 0.2250   298.87 0.2500
 -57.43   320.55 0.2250 0.2250   304.81 0.2500
 -55.11   323.35 0.2250 0.2250   310.40 0.2500
 -52.92   326.00 0.2250 0.2250   315.69 0.2500
 -50.83   328.50 0.2250 0.2250   320.71 0.2500
 -48.83   330.88 0.2250 0.2250   325.47 0.2500
 -46.91   333.15 0.2250 0.2250   330.00 0.2500
 -45.06   335.30 0.2250 0.2250   334.31 0.2500
 -43.27   337.36 0.2250 0.2250   338.41 0.2500
 -41.52   339.31 0.2250 0.2250   342.32 0.2500
 -39.83   341.17 0.2250 0.2250   346.05 0.2500
 -38.17   342.95 0.2250 0.2250   349.59 0.2500
 -36.55   344.64 0.2250 0.2250   352.97 0.2500
 -34.96   346.24 0.2250 0.2250   356.19 0.2500
 -33.41   347.77 0.2250 0.2250   359.25 0.2500
 -31.88   349.23 0.2250 0.2250   362.15 0.2500
 -30.37   350.61 0.2250 0.2250   364.91 0.2500
 -28.89   351.91 0.2250 0.2250   367.53 0.2500
 -27.43   353.15 0.2250 0.2250   370.00 0.2500
 -25.99   354.32 0.2250 0.2250   372.34 0.2500
 -24.57   355.43 0.2250 0.2250   374.55 0.2500
 -23.16   356.46 0.2250 0.2250   376.63 0.2500
 -21.76   357.44 0.2250 0.2250   378.58 0.2500
 -20.38   358.35 0.2250 0.2250   380.40 0.2500
 -19.02   359.20 0.2250 0.2250   382.10 0.2500
 -17.66   359.99 0.2250 0.2250   383.68 0.2500
 -16.31   360.72 0.2250 0.2250   385.14 0.2500
 -14.98   361.39 0.2250 0.2250   386.49 0.2500
 -13.65   362.01 0.2250 0.2250   387.71 0.2500
 -12.33   362.56 0.2250 0.2250   388.82 0.2500
 -11.01   363.06 0.2250 0.2250   389.82 0.2500
  -9.70   363.50 0.2250 0.2250   390.70 0.2500
  -8.40   363.89 0.2250 0.2250   391.47 0.2500
  -7.10   364.22 0.2250 0.2250   392.13 0.2500
  -5.80   364.49 0.2250 0.2250   392.68 0.2500
  -4.51   364.71 0.2250 0.2250   393.12 0.2500
  -3.22   364.87 0.2250 0.2250   393.45 0.2500
  -1.93   364.98 0.2250 0.2250   393.67 0.2500
  -0.64   365.04 0.2250 0.2250   393.78 0.2500
   0.64   365.04 0.2250 0.2250   393.78 0.2500
   1.93   364.98 0.2250 0.2250   393.67 0.2500
   3.22   364.87 0.2250 0.2250   393.45 0.2500
   4.51   364.71 0.2250 0.2250   393.12 0.2500
   5.80   364.49 0.2250 0.2250   392.68 0.2500
   7.10   364.22 0.2250 0.2250   392.13 0.2500
   8.40   363.89 0.2250 0.2250   391.47 0.2500
   9.70   363.50 0.2250 0.2250   390.70 0.2500
  11.01   363.06 0.2250 0.2250   389.82 0.2500
  12.33   362.56 0.2250 0.2250   388.82 0.2500
  13.65   362.01 0.2250 0.2250   387.71 0.2500
  14.98   361.39 0.2250 0.2250   386.49 0.2500
  16.31   360.72 0.2250 0.2250   385.14 0.2500
  17.66   359.99 0.2250 0.2250   383.68 0.2500
  19.02   359.20 0.2250 0.2250   382.10 0.2500
  20.38   358.35 0.2250 0.2250   380.40 0.2500
  21.76   357.44 0.2250 0.2250   378.58 0.2500
  23.16   356.46 0.2250 0.2250   376.63 0.2500
  24.57   355.43 0.2250 0.2250   374.55 0.2500
  25.99   354.32 0.2250 0.2250   372.34 0.2500
  27.43   353.15 0.2250 0.2250   370.00 0.2500
  28.89   351.91 0.2250 0.2250   367.53 0.2500
  30.37   350.61 0.2250 0.2250   364.91 0.2500
  31.88   349.23 0.2250 0.2250   362.15 0.2500
  33.41   347.77 0.2250 0.2250   359.25 0.2500
  34.96   346.24 0.2250 0.2250   356.19 0.2500
  36.55   344.64 0.2250 0.2250   352.97 0.2500
  38.17   342.95 0.2250 0.2250   349.59 0.2500
  39.83   341.17 0.2250 0.2250   346.05 0.2500
  41.52   339.31 0.2250 0.2250   342.32 0.2500
  43.27   337.36 0.2250 0.2250   338.41 0.2500
  45.06   335.30 0.2250 0.2250   334.31 0.2500
  46.91   333.15 0.2250 0.2250   330.00 0.2500
  48.83   330.88 0.2250 0.2250   325.47 0.2500
  50.83   328.50 0.2250 0.2250   320.71 0.2500
  52.92   326.00 0.2250 0.2250   315.69 0.2500
  55.11   323.35 0.2250 0.2250   310.40 0.2500
  57.43   320.55 0.2250 0.2250   304.81 0.2500
  59.90   317.59 0.2250 0.2250   298.87 0.2500
  62.58   314.42 0.2250 0.2250   292.54 0.2500
  65.52   311.02 0.2250 0.2250   285.75 0.2500
  68.84   307.33 0.2250 0.2250   278.35 0.2500
  72.76   303.21 0.2250 0.2250   270.13 0.2500
  77.83   298.36 0.2250 0.2250   260.43 0.2500
  90.00   290.74 0.2250 0.2250   245.19 0.2500
