# Name of benchmark/experiment: FILLET Experiment 2a (cold start, au)
# Case number: 137
# Instellation (S_earth): 1.469238
# XCO2 (ppm): 280.0
# Obliquity (degrees): 90.0
# Mode: seasonal
#
# Columns of data (annually averaged for last orbit)
# Lat Tsurf Asurf ATOA OLR Fland
 -90.00   386.34 0.2250 0.2250   436.39 0.2500
 -77.83   384.28 0.2250 0.2250   432.26 0.2500
 -72.76   382.73 0.2250 0.2250   429.16 0.2500
 -68.84   381.28 0.2250 0.2250   426.25 0.2500
 -65.52   379.87 0.2250 0.2250   423.44 0.2500
 -62.58   378.51 0.2250 0.2250   420.71 0.2500
 -59.90   377.18 0.2250 0.2250   418.06 0.2500
 -57.43   375.90 0.2250 0.2250   415.49 0.2500
 -55.11   374.65 0.2250 0.2250   412.99 0.2500
 -52.92   373.43 0.2250 0.2250   410.56 0.2500
 -50.83   372.24 0.2250 0.2250   408.18 0.2500
 -48.83   371.07 0.2250 0.2250   405.85 0.2500
 -46.91   369.93 0.2250 0.2250   403.56 0.2500
 -45.06   368.81 0.2250 0.2250   401.32 0.2500
 -43.27   367.71 0.2250 0.2250   399.12 0.2500
 -41.52   366.63 0.2250 0.2250   396.96 0.2500
 -39.83   365.57 0.2250 0.2250   394.85 0.2500
 -38.17   364.54 0.2250 0.2250   392.78 0.2500
 -36.55   363.53 0.2250 0.2250   390.76 0.2500
 -34.96   362.54 0.2250 0.2250   388.79 0.2500
 -33.41   361.59 0.2250 0.2250   386.87 0.2500
 -31.88   360.66 0.2250 0.2250   385.01 0.2500
 -30.37   359.76 0.2250 0.2250   383.21 0.2500
 -28.89   358.89 0.2250 0.2250   381.48 0.2500
 -27.43   358.05 0.2250 0.2250   379.81 0.2500
 -25.99   357.25 0.2250 0.2250   378.21 0.2500
 -24.57   356.49 0.2250 0.2250   376.68 0.2500
 -23.16   355.76 0.2250 0.2250   375.22 0.2500
 -21.76   355.06 0.2250 0.2250   373.82 0.2500
 -20.38   354.40 0.2250 0.2250   372.50 0.2500
 -19.02   353.77 0.2250 0.2250   371.25 0.2500
 -17.66   353.18 0.2250 0.2250   370.06 0.2500
 -16.31   352.62 0.2250 0.2250   368.95 0.2500
 -14.98   352.10 0.2250 0.2250   367.91 0.2500
 -13.65   351.62 0.2250 0.2250   366.94 0.2500
 -12.33   351.17 0.2250 0.2250   366.04 0.2500
 -11.01   350.76 0.2250 0.2250   365.22 0.2500
  -9.70   350.39 0.2250 0.2250   364.48 0.2500
  -8.40   350.06 0.2250 0.2250   363.82 0.2500
  -7.10   349.77 0.2250 0.2250   363.24 0.2500
  -5.80   349.52 0.2250 0.2250   362.75 0.2500
  -4.51   349.32 0.2250 0.2250   362.35 0.2500
  -3.22   349.17 0.2250 0.2250   362.04 0.2500
  -1.93   349.06 0.2250 0.2250   361.83 0.2500
  -0.64   349.01 0.2250 0.2250   361.72 0.2500
   0.64   349.01 0.2250 0.2250   361.72 0.2500
   1.93   349.06 0.2250 0.2250   361.83 0.2500
   3.22   349.17 0.2250 0.2250   362.04 0.2500
   4.51   349.32 0.2250 0.2250   362.35 0.2500
   5.80   349.52 0.2250 0.2250   362.75 0.2500
   7.10   349.77 0.2250 0.2250   363.24 0.2500
   8.40   350.06 0.2250 0.2250   363.82 0.2500
   9.70   350.39 0.2250 0.2250   364.48 0.2500
  11.01   350.76 0.2250 0.2250   365.22 0.2500
  12.33   351.17 0.2250 0.2250   366.04 0.2500
  13.65   351.62 0.2250 0.2250   366.94 0.2500
  14.98   352.10 0.2250 0.2250   367.91 0.2500
  16.31   352.62 0.2250 0.2250   368.95 0.2500
  17.66   353.18 0.2250 0.2250   370.06 0.2500
  19.02   353.77 0.2250 0.2250   371.25 0.2500
  20.38   354.40 0.2250 0.2250   372.50 0.2500
  21.76   355.06 0.2250 0.2250   373.82 0.2500
  23.16   355.76 0.2250 0.2250   375.22 0.2500
  24.57   356.49 0.2250 0.2250   376.68 0.2500
  25.99   357.25 0.2250 0.2250   378.21 0.2500
  27.43   358.05 0.2250 0.2250   379.81 0.2500
  28.89   358.89 0.2250 0.2250   381.48 0.2500
  30.37   359.76 0.2250 0.2250   383.21 0.2500
  31.88   360.66 0.2250 0.2250   385.01 0.2500
  33.41   361.59 0.2250 0.2250   386.87 0.2500
  34.96   362.54 0.2250 0.2250   388.79 0.2500
  36.55   363.53 0.2250 0.2250   390.76 0.2500
  38.17   364.54 0.2250 0.2250   392.78 0.2500
  39.83   365.57 0.2250 0.2250   394.85 0.2500
  41.52   366.63 0.2250 0.2250   396.96 0.2500
  43.27   367.71 0.2250 0.2250   399.12 0.2500
  45.06   368.81 0.2250 0.2250   401.32 0.2500
  46.91   369.93 0.2250 0.2250   403.56 0.2500
  48.83   371.07 0.2250 0.2250   405.85 0.2500
  50.83   372.24 0.2250 0.2250   408.18 0.2500
  52.92   373.43 0.2250 0.2250   410.56 0.2500
  55.11   374.65 0.2250 0.2250   412.99 0.2500
  57.43   375.90 0.2250 0.2250   415.49 0.2500
  59.90   377.18 0.2250 0.2250   418.06 0.2500
  62.58   378.51 0.2250 0.2250   420.71 0.2500
  65.52   379.87 0.2250 0.2250   423.44 0.2500
  68.84   381.28 0.2250 0.2250   426.25 0.2500
  72.76   382.73 0.2250 0.2250   429.16 0.2500
  77.83   384.28 0.2250 0.2250   432.26 0.2500
  90.00   386.34 0.2250 0.2250   436.39 0.2500
