# Name of benchmark/experiment: FILLET Experiment 1a (warm start, au)
# Model: AVALON (Albedo-feedback Variable Axial-tilt Latitudinal Outgoing-Net EBM)
# Mode: seasonal
# Ice line definition: latitude where annual-mean surface temperature crosses 0.0 °C
# Ice-free convention: NMaxLand=NMinLand=NMaxSea=NMinSea=90; SMaxLand=SMinLand=SMaxSea=SMinSea=-90
# Case Inst Obl XCO2 Tglob IceLineNMaxLand IceLineNMinLand IceLineNMaxSea IceLineNMinSea IceLineSMaxLand IceLineSMinLand IceLineSMaxSea IceLineSMinSea Diff OLRglob
0 1.306122448979592 0.0 280.0 340.4201407832118 90.0 90.0 90.0 90.0 -90.0 -90.0 -90.0 -90.0 0.5 344.54028156642363
1 1.2695893671890497 0.0 280.0 335.60168258070894 90.0 90.0 90.0 90.0 -90.0 -90.0 -90.0 -90.0 0.5 334.90336516141787
2 1.2345679012345678 0.0 280.0 330.9825146723988 90.0 90.0 90.0 90.0 -90.0 -90.0 -90.0 -90.0 0.5 325.6650293447975
3 1.2009757928316758 0.0 280.0 326.5518792202559 90.0 90.0 90.0 90.0 -90.0 -90.0 -90.0 -90.0 0.5 316.80375844051173
4 1.168736303871439 0.0 280.0 322.2996590460986 90.0 90.0 90.0 90.0 -90.0 -90.0 -90.0 -90.0 0.5 308.2993180921972
5 1.1377777777777778 0.0 280.0 318.21640860317797 90.0 90.0 90.0 90.0 -90.0 -90.0 -90.0 -90.0 0.5 300.132817206356
6 1.10803324099723 0.0 280.0 314.2933018221927 90.0 90.0 90.0 90.0 -90.0 -90.0 -90.0 -90.0 0.5 292.28660364438537
7 1.0794400404790014 0.0 280.0 310.2323128654679 90.0 81.45092116947839 90.0 81.45092116947839 -81.45092116947839 -90.0 -81.45092116947839 -90.0 0.5 284.1646257309359
8 1.0519395134779752 0.0 280.0 306.1263441811211 90.0 75.16488841802426 90.0 75.16488841802426 -75.16488841802426 -90.0 -75.16488841802426 -90.0 0.5 275.95268836224227
9 1.0254766864284568 0.0 280.0 301.3321342557665 90.0 67.25314872563517 90.0 67.25314872563517 -67.25314872563517 -90.0 -67.25314872563517 -90.0 0.5 266.36426851153317
10 1.0 0.0 280.0 296.3717830450563 90.0 61.37544904657465 90.0 61.37544904657465 -61.37544904657465 -90.0 -61.37544904657465 -90.0 0.5 256.4435660901127
11 0.9754610577655846 0.0 280.0 290.310594567294 90.0 54.2046324563124 90.0 54.2046324563124 -54.2046324563124 -90.0 -54.2046324563124 -90.0 0.5 244.32118913458802
12 0.9518143961927424 0.0 280.0 282.8548469845061 90.0 46.2382573073202 90.0 46.2382573073202 -46.2382573073202 -90.0 -46.2382573073202 -90.0 0.5 229.40969396901215
13 0.9290172739149366 0.0 280.0 231.39296851415742 90.0 0.0 90.0 0.0 0.0 -90.0 0.0 -90.0 0.5 126.4859370283149
14 0.9070294784580498 0.0 280.0 229.8961395976284 90.0 0.0 90.0 0.0 0.0 -90.0 0.0 -90.0 0.5 123.49227919525688
15 0.8858131487889274 0.0 280.0 228.45192310156858 90.0 0.0 90.0 0.0 0.0 -90.0 0.0 -90.0 0.5 120.60384620313721
16 0.8653326122228233 0.0 280.0 227.05771754356107 90.0 0.0 90.0 0.0 0.0 -90.0 0.0 -90.0 0.5 117.81543508712217
17 0.8455542343770645 0.0 280.0 225.71124820165568 90.0 0.0 90.0 0.0 0.0 -90.0 0.0 -90.0 0.5 115.12249640331142
18 0.8264462809917354 0.0 280.0 224.41052920021644 90.0 0.0 90.0 0.0 0.0 -90.0 0.0 -90.0 0.5 112.52105840043296
19 1.306122448979592 10.0 280.0 340.36746912478975 90.0 90.0 90.0 90.0 -90.0 -90.0 -90.0 -90.0 0.5 344.43493824957955
20 1.2695893671890497 10.0 280.0 335.5504841823221 90.0 90.0 90.0 90.0 -90.0 -90.0 -90.0 -90.0 0.5 334.80096836464423
21 1.2345679012345678 10.0 280.0 330.93272872211804 90.0 90.0 90.0 90.0 -90.0 -90.0 -90.0 -90.0 0.5 325.56545744423613
22 1.2009757928316758 10.0 280.0 326.5034481015241 90.0 90.0 90.0 90.0 -90.0 -90.0 -90.0 -90.0 0.5 316.70689620304825
23 1.168736303871439 10.0 280.0 322.25252824211884 90.0 90.0 90.0 90.0 -90.0 -90.0 -90.0 -90.0 0.5 308.20505648423773
24 1.1377777777777778 10.0 280.0 318.1705264930282 90.0 90.0 90.0 90.0 -90.0 -90.0 -90.0 -90.0 0.5 300.0410529860565
25 1.10803324099723 10.0 280.0 314.2486194932234 90.0 90.0 90.0 90.0 -90.0 -90.0 -90.0 -90.0 0.5 292.1972389864468
26 1.0794400404790014 10.0 280.0 310.1585580911511 90.0 81.45092116947839 90.0 81.45092116947839 -81.45092116947839 -90.0 -81.45092116947839 -90.0 0.5 284.01711618230223
27 1.0519395134779752 10.0 280.0 305.92526603735575 90.0 75.16488841802426 90.0 75.16488841802426 -75.16488841802426 -90.0 -75.16488841802426 -90.0 0.5 275.55053207471167
28 1.0254766864284568 10.0 280.0 301.07566263016173 90.0 67.25314872563517 90.0 67.25314872563517 -67.25314872563517 -90.0 -67.25314872563517 -90.0 0.5 265.8513252603235
29 1.0 10.0 280.0 295.13915719474517 90.0 58.821164461344075 90.0 58.821164461344075 -58.821164461344075 -90.0 -58.821164461344075 -90.0 0.5 253.9783143894905
30 0.9754610577655846 10.0 280.0 288.9153438139789 90.0 52.081797343554456 90.0 52.081797343554456 -52.081797343554456 -90.0 -52.081797343554456 -90.0 0.5 241.53068762795786
31 0.9518143961927424 10.0 280.0 280.05390074825874 90.0 42.670233871257594 90.0 42.670233871257594 -42.670233871257594 -90.0 -42.670233871257594 -90.0 0.5 223.80780149651753
32 0.9290172739149366 10.0 280.0 231.37368302239213 90.0 0.0 90.0 0.0 0.0 -90.0 0.0 -90.0 0.5 126.44736604478427
33 0.9070294784580498 10.0 280.0 229.87731076907502 90.0 0.0 90.0 0.0 0.0 -90.0 0.0 -90.0 0.5 123.45462153815009
34 0.8858131487889274 10.0 280.0 228.43348247466372 90.0 0.0 90.0 0.0 0.0 -90.0 0.0 -90.0 0.5 120.56696494932744
35 0.8653326122228233 10.0 280.0 227.03965160001792 90.0 0.0 90.0 0.0 0.0 -90.0 0.0 -90.0 0.5 117.77930320003591
36 0.8455542343770645 10.0 280.0 225.6937030872879 90.0 0.0 90.0 0.0 0.0 -90.0 0.0 -90.0 0.5 115.08740617457585
37 0.8264462809917354 10.0 280.0 224.39330328983942 90.0 0.0 90.0 0.0 0.0 -90.0 0.0 -90.0 0.5 112.4866065796789
38 1.306122448979592 20.0 280.0 340.3685246447824 90.0 90.0 90.0 90.0 -90.0 -90.0 -90.0 -90.0 0.5 344.43704928956487
39 1.2695893671890497 20.0 280.0 335.5515101787442 90.0 90.0 90.0 90.0 -90.0 -90.0 -90.0 -90.0 0.5 334.8030203574884
40 1.2345679012345678 20.0 280.0 330.93372641362396 90.0 90.0 90.0 90.0 -90.0 -90.0 -90.0 -90.0 0.5 325.5674528272479
41 1.2009757928316758 20.0 280.0 326.50441864272864 90.0 90.0 90.0 90.0 -90.0 -90.0 -90.0 -90.0 0.5 316.70883728545726
42 1.168736303871439 20.0 280.0 322.25347272551915 90.0 90.0 90.0 90.0 -90.0 -90.0 -90.0 -90.0 0.5 308.2069454510384
43 1.1377777777777778 20.0 280.0 318.1714459530896 90.0 90.0 90.0 90.0 -90.0 -90.0 -90.0 -90.0 0.5 300.04289190617914
44 1.10803324099723 20.0 280.0 314.24951491013854 90.0 90.0 90.0 90.0 -90.0 -90.0 -90.0 -90.0 0.5 292.1990298202771
45 1.0794400404790014 20.0 280.0 310.47935421643916 90.0 90.0 90.0 90.0 -90.0 -90.0 -90.0 -90.0 0.5 284.65870843287837
46 1.0519395134779752 20.0 280.0 306.8532061079779 90.0 90.0 90.0 90.0 -90.0 -90.0 -90.0 -90.0 0.5 277.4064122159558
47 1.0254766864284568 20.0 280.0 301.54135863127294 90.0 75.16488841802426 90.0 75.16488841802426 -75.16488841802426 -90.0 -75.16488841802426 -90.0 0.5 266.782717262546
48 1.0 20.0 280.0 295.7203968823646 90.0 61.37544904657465 90.0 61.37544904657465 -61.37544904657465 -90.0 -61.37544904657465 -90.0 0.5 255.14079376472927
49 0.9754610577655846 20.0 280.0 287.4299987997081 90.0 52.081797343554456 90.0 52.081797343554456 -52.081797343554456 -90.0 -52.081797343554456 -90.0 0.5 238.5599975994161
50 0.9518143961927424 20.0 280.0 232.92550561664999 90.0 0.0 90.0 0.0 0.0 -90.0 0.0 -90.0 0.5 129.55101123330002
51 0.9290172739149366 20.0 280.0 231.3740400040813 90.0 0.0 90.0 0.0 0.0 -90.0 0.0 -90.0 0.5 126.44808000816269
52 0.9070294784580498 20.0 280.0 229.87764775870602 90.0 0.0 90.0 0.0 0.0 -90.0 0.0 -90.0 0.5 123.45529551741205
53 0.8858131487889274 20.0 280.0 228.43379258999397 90.0 0.0 90.0 0.0 0.0 -90.0 0.0 -90.0 0.5 120.56758517998797
54 0.8653326122228233 20.0 280.0 227.04005016328242 90.0 0.0 90.0 0.0 0.0 -90.0 0.0 -90.0 0.5 117.78010032656492
55 0.8455542343770645 20.0 280.0 225.69405901518815 90.0 0.0 90.0 0.0 0.0 -90.0 0.0 -90.0 0.5 115.08811803037636
56 0.8264462809917354 20.0 280.0 224.3936744215265 90.0 0.0 90.0 0.0 0.0 -90.0 0.0 -90.0 0.5 112.48734884305306
57 1.306122448979592 30.0 280.0 340.36252931053167 90.0 90.0 90.0 90.0 -90.0 -90.0 -90.0 -90.0 0.5 344.42505862106344
58 1.2695893671890497 30.0 280.0 335.545682537834 90.0 90.0 90.0 90.0 -90.0 -90.0 -90.0 -90.0 0.5 334.79136507566807
59 1.2345679012345678 30.0 280.0 330.9280595441586 90.0 90.0 90.0 90.0 -90.0 -90.0 -90.0 -90.0 0.5 325.55611908831725
60 1.2009757928316758 30.0 280.0 326.49890598652286 90.0 90.0 90.0 90.0 -90.0 -90.0 -90.0 -90.0 0.5 316.6978119730457
61 1.168736303871439 30.0 280.0 322.2481080772169 90.0 90.0 90.0 90.0 -90.0 -90.0 -90.0 -90.0 0.5 308.19621615443384
62 1.1377777777777778 30.0 280.0 318.1662234369569 90.0 90.0 90.0 90.0 -90.0 -90.0 -90.0 -90.0 0.5 300.03244687391384
63 1.10803324099723 30.0 280.0 314.2444289587098 90.0 90.0 90.0 90.0 -90.0 -90.0 -90.0 -90.0 0.5 292.18885791741974
64 1.0794400404790014 30.0 280.0 310.4743996012971 90.0 90.0 90.0 90.0 -90.0 -90.0 -90.0 -90.0 0.5 284.6487992025942
65 1.0519395134779752 30.0 280.0 306.84837805840993 90.0 90.0 90.0 90.0 -90.0 -90.0 -90.0 -90.0 0.5 277.3967561168199
66 1.0254766864284568 30.0 280.0 303.35949156993007 90.0 90.0 90.0 90.0 -90.0 -90.0 -90.0 -90.0 0.5 270.4189831398602
67 1.0 30.0 280.0 300.0009692254743 90.0 90.0 90.0 90.0 -90.0 -90.0 -90.0 -90.0 0.5 263.70193845094866
68 0.9754610577655846 30.0 280.0 296.432407902415 90.0 90.0 90.0 90.0 -90.0 -90.0 -90.0 -90.0 0.5 256.56481580483
69 0.9518143961927424 30.0 280.0 232.92325530116355 90.0 0.0 90.0 0.0 0.0 -90.0 0.0 -90.0 0.5 129.54651060232712
70 0.9290172739149366 30.0 280.0 231.3718781680279 90.0 0.0 90.0 0.0 0.0 -90.0 0.0 -90.0 0.5 126.44375633605584
71 0.9070294784580498 30.0 280.0 229.87548443723236 90.0 0.0 90.0 0.0 0.0 -90.0 0.0 -90.0 0.5 123.45096887446475
72 0.8858131487889274 30.0 280.0 228.4317114024567 90.0 0.0 90.0 0.0 0.0 -90.0 0.0 -90.0 0.5 120.56342280491339
73 0.8653326122228233 30.0 280.0 227.03798676331897 90.0 0.0 90.0 0.0 0.0 -90.0 0.0 -90.0 0.5 117.77597352663793
74 0.8455542343770645 30.0 280.0 225.6919730911148 90.0 0.0 90.0 0.0 0.0 -90.0 0.0 -90.0 0.5 115.08394618222964
75 0.8264462809917354 30.0 280.0 224.39165350760982 90.0 0.0 90.0 0.0 0.0 -90.0 0.0 -90.0 0.5 112.48330701521972
76 1.306122448979592 40.0 280.0 340.3637028630578 90.0 90.0 90.0 90.0 -90.0 -90.0 -90.0 -90.0 0.5 344.4274057261157
77 1.2695893671890497 40.0 280.0 335.5468232653441 90.0 90.0 90.0 90.0 -90.0 -90.0 -90.0 -90.0 0.5 334.7936465306881
78 1.2345679012345678 40.0 280.0 330.92916880157355 90.0 90.0 90.0 90.0 -90.0 -90.0 -90.0 -90.0 0.5 325.55833760314715
79 1.2009757928316758 40.0 280.0 326.4999850575701 90.0 90.0 90.0 90.0 -90.0 -90.0 -90.0 -90.0 0.5 316.6999701151402
80 1.168736303871439 40.0 280.0 322.24915817655943 90.0 90.0 90.0 90.0 -90.0 -90.0 -90.0 -90.0 0.5 308.19831635311886
81 1.1377777777777778 40.0 280.0 318.167245714736 90.0 90.0 90.0 90.0 -90.0 -90.0 -90.0 -90.0 0.5 300.03449142947204
82 1.10803324099723 40.0 280.0 314.245424504725 90.0 90.0 90.0 90.0 -90.0 -90.0 -90.0 -90.0 0.5 292.19084900945006
83 1.0794400404790014 40.0 280.0 310.47536943897927 90.0 90.0 90.0 90.0 -90.0 -90.0 -90.0 -90.0 0.5 284.6507388779586
84 1.0519395134779752 40.0 280.0 306.8493231215906 90.0 90.0 90.0 90.0 -90.0 -90.0 -90.0 -90.0 0.5 277.39864624318125
85 1.0254766864284568 40.0 280.0 303.3604120662206 90.0 90.0 90.0 90.0 -90.0 -90.0 -90.0 -90.0 0.5 270.4208241324413
86 1.0 40.0 280.0 300.00186762616045 90.0 90.0 90.0 90.0 -90.0 -90.0 -90.0 -90.0 0.5 263.70373525232094
87 0.9754610577655846 40.0 280.0 296.7664070345026 90.0 90.0 90.0 90.0 -90.0 -90.0 -90.0 -90.0 0.5 257.2328140690053
88 0.9518143961927424 40.0 280.0 293.64855311185676 90.0 90.0 90.0 90.0 -90.0 -90.0 -90.0 -90.0 0.5 250.99710622371356
89 0.9290172739149366 40.0 280.0 290.6427482817419 90.0 90.0 90.0 90.0 -90.0 -90.0 -90.0 -90.0 0.5 244.98549656348388
90 0.9070294784580498 40.0 280.0 229.87593553418918 90.0 0.0 90.0 0.0 0.0 -90.0 0.0 -90.0 0.5 123.45187106837837
91 0.8858131487889274 40.0 280.0 228.4321128665443 90.0 0.0 90.0 0.0 0.0 -90.0 0.0 -90.0 0.5 120.56422573308862
92 0.8653326122228233 40.0 280.0 227.03835285654975 90.0 0.0 90.0 0.0 0.0 -90.0 0.0 -90.0 0.5 117.77670571309955
93 0.8455542343770645 40.0 280.0 225.6923791197453 90.0 0.0 90.0 0.0 0.0 -90.0 0.0 -90.0 0.5 115.08475823949074
94 0.8264462809917354 40.0 280.0 224.39204134895084 90.0 0.0 90.0 0.0 0.0 -90.0 0.0 -90.0 0.5 112.48408269790174
95 1.306122448979592 50.0 280.0 340.3632927708767 90.0 90.0 90.0 90.0 -90.0 -90.0 -90.0 -90.0 0.5 344.4265855417534
96 1.2695893671890497 50.0 280.0 335.546424643704 90.0 90.0 90.0 90.0 -90.0 -90.0 -90.0 -90.0 0.5 334.792849287408
97 1.2345679012345678 50.0 280.0 330.9287811770033 90.0 90.0 90.0 90.0 -90.0 -90.0 -90.0 -90.0 0.5 325.5575623540066
98 1.2009757928316758 50.0 280.0 326.4996079814773 90.0 90.0 90.0 90.0 -90.0 -90.0 -90.0 -90.0 0.5 316.6992159629547
99 1.168736303871439 50.0 280.0 322.24879122448596 90.0 90.0 90.0 90.0 -90.0 -90.0 -90.0 -90.0 0.5 308.19758244897196
100 1.1377777777777778 50.0 280.0 318.1668884847704 90.0 90.0 90.0 90.0 -90.0 -90.0 -90.0 -90.0 0.5 300.03377696954095
101 1.10803324099723 50.0 280.0 314.245076616042 90.0 90.0 90.0 90.0 -90.0 -90.0 -90.0 -90.0 0.5 292.190153232084
102 1.0794400404790014 50.0 280.0 310.47503053394354 90.0 90.0 90.0 90.0 -90.0 -90.0 -90.0 -90.0 0.5 284.6500610678871
103 1.0519395134779752 50.0 280.0 306.84899287386884 90.0 90.0 90.0 90.0 -90.0 -90.0 -90.0 -90.0 0.5 277.3979857477377
104 1.0254766864284568 50.0 280.0 303.3601286767933 90.0 90.0 90.0 90.0 -90.0 -90.0 -90.0 -90.0 0.5 270.4202573535866
105 1.0 50.0 280.0 300.00155368441995 90.0 90.0 90.0 90.0 -90.0 -90.0 -90.0 -90.0 0.5 263.7031073688399
106 0.9754610577655846 50.0 280.0 296.76610077892957 90.0 90.0 90.0 90.0 -90.0 -90.0 -90.0 -90.0 0.5 257.23220155785924
107 0.9518143961927424 50.0 280.0 293.6482542736051 90.0 90.0 90.0 90.0 -90.0 -90.0 -90.0 -90.0 0.5 250.99650854721028
108 0.9290172739149366 50.0 280.0 290.6424565986191 90.0 90.0 90.0 90.0 -90.0 -90.0 -90.0 -90.0 0.5 244.9849131972383
109 0.9070294784580498 50.0 280.0 287.7433409414386 90.0 90.0 90.0 90.0 -90.0 -90.0 -90.0 -90.0 0.5 239.18668188287722
110 0.8858131487889274 50.0 280.0 284.9459256577036 90.0 90.0 90.0 90.0 -90.0 -90.0 -90.0 -90.0 0.5 233.59185131540713
111 0.8653326122228233 50.0 280.0 282.24551460552334 90.0 90.0 90.0 90.0 -90.0 -90.0 -90.0 -90.0 0.5 228.19102921104673
112 0.8455542343770645 50.0 280.0 225.69226332201265 90.0 0.0 90.0 0.0 0.0 -90.0 0.0 -90.0 0.5 115.08452664402535
113 0.8264462809917354 50.0 280.0 224.39191124676296 90.0 0.0 90.0 0.0 0.0 -90.0 0.0 -90.0 0.5 112.48382249352596
114 1.306122448979592 60.0 280.0 340.36310722834946 90.0 90.0 90.0 90.0 -90.0 -90.0 -90.0 -90.0 0.5 344.4262144566989
115 1.2695893671890497 60.0 280.0 335.5462442909201 90.0 90.0 90.0 90.0 -90.0 -90.0 -90.0 -90.0 0.5 334.7924885818402
116 1.2345679012345678 60.0 280.0 330.92860579974484 90.0 90.0 90.0 90.0 -90.0 -90.0 -90.0 -90.0 0.5 325.55721159948985
117 1.2009757928316758 60.0 280.0 326.4994373767827 90.0 90.0 90.0 90.0 -90.0 -90.0 -90.0 -90.0 0.5 316.6988747535654
118 1.168736303871439 60.0 280.0 322.24862520031274 90.0 90.0 90.0 90.0 -90.0 -90.0 -90.0 -90.0 0.5 308.19725040062565
119 1.1377777777777778 60.0 280.0 318.16672685927745 90.0 90.0 90.0 90.0 -90.0 -90.0 -90.0 -90.0 0.5 300.033453718555
120 1.10803324099723 60.0 280.0 314.24491921692817 90.0 90.0 90.0 90.0 -90.0 -90.0 -90.0 -90.0 0.5 292.1898384338565
121 1.0794400404790014 60.0 280.0 310.47487719939943 90.0 90.0 90.0 90.0 -90.0 -90.0 -90.0 -90.0 0.5 284.64975439879896
122 1.0519395134779752 60.0 280.0 306.8488434562455 90.0 90.0 90.0 90.0 -90.0 -90.0 -90.0 -90.0 0.5 277.39768691249117
123 1.0254766864284568 60.0 280.0 303.3599831163899 90.0 90.0 90.0 90.0 -90.0 -90.0 -90.0 -90.0 0.5 270.4199662327798
124 1.0 60.0 280.0 300.00141164429175 90.0 90.0 90.0 90.0 -90.0 -90.0 -90.0 -90.0 0.5 263.7028232885835
125 0.9754610577655846 60.0 280.0 296.76596221634156 90.0 90.0 90.0 90.0 -90.0 -90.0 -90.0 -90.0 0.5 257.2319244326832
126 0.9518143961927424 60.0 280.0 293.6481190669186 90.0 90.0 90.0 90.0 -90.0 -90.0 -90.0 -90.0 0.5 250.9962381338372
127 0.9290172739149366 60.0 280.0 290.6423246292068 90.0 90.0 90.0 90.0 -90.0 -90.0 -90.0 -90.0 0.5 244.9846492584137
128 0.9070294784580498 60.0 280.0 287.7432120945851 90.0 90.0 90.0 90.0 -90.0 -90.0 -90.0 -90.0 0.5 239.1864241891702
129 0.8858131487889274 60.0 280.0 284.9457998240188 90.0 90.0 90.0 90.0 -90.0 -90.0 -90.0 -90.0 0.5 233.59159964803771
130 0.8653326122228233 60.0 280.0 282.2453916806426 90.0 90.0 90.0 90.0 -90.0 -90.0 -90.0 -90.0 0.5 228.1907833612852
131 0.8455542343770645 60.0 280.0 279.63764247687806 90.0 90.0 90.0 90.0 -90.0 -90.0 -90.0 -90.0 0.5 222.97528495375624
132 0.8264462809917354 60.0 280.0 277.1181942546225 90.0 90.0 90.0 90.0 -90.0 -90.0 -90.0 -90.0 0.5 217.93638850924503
133 1.306122448979592 70.0 280.0 340.3637735731702 90.0 90.0 90.0 90.0 -90.0 -90.0 -90.0 -90.0 0.5 344.4275471463404
134 1.2695893671890497 70.0 280.0 335.54689199764925 90.0 90.0 90.0 90.0 -90.0 -90.0 -90.0 -90.0 0.5 334.79378399529855
135 1.2345679012345678 70.0 280.0 330.92923563770887 90.0 90.0 90.0 90.0 -90.0 -90.0 -90.0 -90.0 0.5 325.55847127541773
136 1.2009757928316758 70.0 280.0 326.5000500748838 90.0 90.0 90.0 90.0 -90.0 -90.0 -90.0 -90.0 0.5 316.7001001497677
137 1.168736303871439 70.0 280.0 322.24922144823853 90.0 90.0 90.0 90.0 -90.0 -90.0 -90.0 -90.0 0.5 308.1984428964771
138 1.1377777777777778 70.0 280.0 318.16730731007976 90.0 90.0 90.0 90.0 -90.0 -90.0 -90.0 -90.0 0.5 300.0346146201596
139 1.10803324099723 70.0 280.0 314.24548448939686 90.0 90.0 90.0 90.0 -90.0 -90.0 -90.0 -90.0 0.5 292.1909689787939
140 1.0794400404790014 70.0 280.0 310.47542787464124 90.0 90.0 90.0 90.0 -90.0 -90.0 -90.0 -90.0 0.5 284.6508557492824
141 1.0519395134779752 70.0 280.0 306.8493800644958 90.0 90.0 90.0 90.0 -90.0 -90.0 -90.0 -90.0 0.5 277.39876012899174
142 1.0254766864284568 70.0 280.0 303.3605058718123 90.0 90.0 90.0 90.0 -90.0 -90.0 -90.0 -90.0 0.5 270.4210117436246
143 1.0 70.0 280.0 300.0019217575097 90.0 90.0 90.0 90.0 -90.0 -90.0 -90.0 -90.0 0.5 263.7038435150194
144 0.9754610577655846 70.0 280.0 296.76645984058126 90.0 90.0 90.0 90.0 -90.0 -90.0 -90.0 -90.0 0.5 257.23291968116257
145 0.9518143961927424 70.0 280.0 293.6486046390107 90.0 90.0 90.0 90.0 -90.0 -90.0 -90.0 -90.0 0.5 250.99720927802147
146 0.9290172739149366 70.0 280.0 290.6427985751756 90.0 90.0 90.0 90.0 -90.0 -90.0 -90.0 -90.0 0.5 244.98559715035134
147 0.9070294784580498 70.0 280.0 287.74367482641094 90.0 90.0 90.0 90.0 -90.0 -90.0 -90.0 -90.0 0.5 239.18734965282192
148 0.8858131487889274 70.0 280.0 284.9462517345574 90.0 90.0 90.0 90.0 -90.0 -90.0 -90.0 -90.0 0.5 233.59250346911483
149 0.8653326122228233 70.0 280.0 282.2458331447017 90.0 90.0 90.0 90.0 -90.0 -90.0 -90.0 -90.0 0.5 228.1916662894034
150 0.8455542343770645 70.0 280.0 279.6380738506634 90.0 90.0 90.0 90.0 -90.0 -90.0 -90.0 -90.0 0.5 222.97614770132677
151 0.8264462809917354 70.0 280.0 224.3920963200576 90.0 0.0 90.0 0.0 0.0 -90.0 0.0 -90.0 0.5 112.48419264011524
152 1.306122448979592 80.0 280.0 340.36401926688706 90.0 90.0 90.0 90.0 -90.0 -90.0 -90.0 -90.0 0.5 344.42803853377416
153 1.2695893671890497 80.0 280.0 335.5471308191554 90.0 90.0 90.0 90.0 -90.0 -90.0 -90.0 -90.0 0.5 334.79426163831096
154 1.2345679012345678 80.0 280.0 330.9294678706683 90.0 90.0 90.0 90.0 -90.0 -90.0 -90.0 -90.0 0.5 325.5589357413367
155 1.2009757928316758 80.0 280.0 326.50027598805616 90.0 90.0 90.0 90.0 -90.0 -90.0 -90.0 -90.0 0.5 316.70055197611237
156 1.168736303871439 80.0 280.0 322.24944129592416 90.0 90.0 90.0 90.0 -90.0 -90.0 -90.0 -90.0 0.5 308.19888259184836
157 1.1377777777777778 80.0 280.0 318.1675213330708 90.0 90.0 90.0 90.0 -90.0 -90.0 -90.0 -90.0 0.5 300.03504266614175
158 1.10803324099723 80.0 280.0 314.2456929158524 90.0 90.0 90.0 90.0 -90.0 -90.0 -90.0 -90.0 0.5 292.1913858317048
159 1.0794400404790014 80.0 280.0 310.47563091882256 90.0 90.0 90.0 90.0 -90.0 -90.0 -90.0 -90.0 0.5 284.65126183764517
160 1.0519395134779752 80.0 280.0 306.84957792189584 90.0 90.0 90.0 90.0 -90.0 -90.0 -90.0 -90.0 0.5 277.3991558437918
