# Name of benchmark/experiment: FILLET Experiment 1a (warm start, au)
# Case number: 47
# Instellation (S_earth): 1.025477
# XCO2 (ppm): 280.0
# Obliquity (degrees): 20.0
# Mode: seasonal
#
# Columns of data (annually averaged for last orbit)
# Lat Tsurf Asurf ATOA OLR Fland
 -90.00   269.87 0.2250 0.2250   203.45 0.2500
 -77.83   273.87 0.2250 0.2250   211.44 0.2500
 -72.76   276.51 0.2250 0.2250   216.72 0.2500
 -68.84   278.86 0.2250 0.2250   221.41 0.2500
 -65.52   281.04 0.2250 0.2250   225.79 0.2500
 -62.58   283.11 0.2250 0.2250   229.92 0.2500
 -59.90   285.07 0.2250 0.2250   233.83 0.2500
 -57.43   286.93 0.2250 0.2250   237.56 0.2500
 -55.11   288.71 0.2250 0.2250   241.12 0.2500
 -52.92   290.41 0.2250 0.2250   244.52 0.2500
 -50.83   292.03 0.2250 0.2250   247.77 0.2500
 -48.83   293.58 0.2250 0.2250   250.87 0.2500
 -46.91   295.07 0.2250 0.2250   253.84 0.2500
 -45.06   296.49 0.2250 0.2250   256.68 0.2500
 -43.27   297.85 0.2250 0.2250   259.39 0.2500
 -41.52   299.14 0.2250 0.2250   261.99 0.2500
 -39.83   300.39 0.2250 0.2250   264.47 0.2500
 -38.17   301.57 0.2250 0.2250   266.84 0.2500
 -36.55   302.70 0.2250 0.2250   269.11 0.2500
 -34.96   303.78 0.2250 0.2250   271.27 0.2500
 -33.41   304.81 0.2250 0.2250   273.33 0.2500
 -31.88   305.79 0.2250 0.2250   275.29 0.2500
 -30.37   306.73 0.2250 0.2250   277.15 0.2500
 -28.89   307.61 0.2250 0.2250   278.92 0.2500
 -27.43   308.45 0.2250 0.2250   280.60 0.2500
 -25.99   309.25 0.2250 0.2250   282.19 0.2500
 -24.57   310.00 0.2250 0.2250   283.69 0.2500
 -23.16   310.70 0.2250 0.2250   285.11 0.2500
 -21.76   311.37 0.2250 0.2250   286.44 0.2500
 -20.38   311.99 0.2250 0.2250   287.68 0.2500
 -19.02   312.57 0.2250 0.2250   288.84 0.2500
 -17.66   313.11 0.2250 0.2250   289.92 0.2500
 -16.31   313.61 0.2250 0.2250   290.92 0.2500
 -14.98   314.07 0.2250 0.2250   291.84 0.2500
 -13.65   314.49 0.2250 0.2250   292.68 0.2500
 -12.33   314.87 0.2250 0.2250   293.44 0.2500
 -11.01   315.21 0.2250 0.2250   294.12 0.2500
  -9.70   315.51 0.2250 0.2250   294.73 0.2500
  -8.40   315.78 0.2250 0.2250   295.26 0.2500
  -7.10   316.00 0.2250 0.2250   295.71 0.2500
  -5.80   316.19 0.2250 0.2250   296.08 0.2500
  -4.51   316.34 0.2250 0.2250   296.39 0.2500
  -3.22   316.46 0.2250 0.2250   296.61 0.2500
  -1.93   316.53 0.2250 0.2250   296.76 0.2500
  -0.64   316.57 0.2250 0.2250   296.84 0.2500
   0.64   316.57 0.2250 0.2250   296.84 0.2500
   1.93   316.53 0.2250 0.2250   296.76 0.2500
   3.22   316.46 0.2250 0.2250   296.61 0.2500
   4.51   316.34 0.2250 0.2250   296.39 0.2500
   5.80   316.19 0.2250 0.2250   296.08 0.2500
   7.10   316.00 0.2250 0.2250   295.71 0.2500
   8.40   315.78 0.2250 0.2250   295.26 0.2500
   9.70   315.51 0.2250 0.2250   294.73 0.2500
  11.01   315.21 0.2250 0.2250   294.12 0.2500
  12.33   314.87 0.2250 0.2250   293.44 0.2500
  13.65   314.49 0.2250 0.2250   292.68 0.2500
  14.98   314.07 0.2250 0.2250   291.84 0.2500
  16.31   313.61 0.2250 0.2250   290.92 0.2500
  17.66   313.11 0.2250 0.2250   289.92 0.2500
  19.02   312.57 0.2250 0.2250   288.84 0.2500
  20.38   311.99 0.2250 0.2250   287.68 0.2500
  21.76   311.37 0.2250 0.2250   286.44 0.2500
  23.16   310.70 0.2250 0.2250   285.11 0.2500
  24.57   310.00 0.2250 0.2250   283.69 0.2500
  25.99   309.25 0.2250 0.2250   282.19 0.2500
  27.43   308.45 0.2250 0.2250   280.60 0.2500
  28.89   307.61 0.2250 0.2250   278.92 0.2500
  30.37   306.73 0.2250 0.2250   277.15 0.2500
  31.88   305.79 0.2250 0.2250   275.29 0.2500
  33.41   304.81 0.2250 0.2250   273.33 0.2500
  34.96   303.78 0.2250 0.2250   271.27 0.2500
  36.55   302.70 0.2250 0.2250   269.11 0.2500
  38.17   301.57 0.2250 0.2250   266.84 0.2500
  39.83   300.39 0.2250 0.2250   264.47 0.2500
  41.52   299.14 0.2250 0.2250   261.99 0.2500
  43.27   297.85 0.2250 0.2250   259.39 0.2500
  45.06   296.49 0.2250 0.2250   256.68 0.2500
  46.91   295.07 0.2250 0.2250   253.84 0.2500
  48.83   293.58 0.2250 0.2250   250.87 0.2500
  50.83   292.03 0.2250 0.2250   247.77 0.2500
  52.92   290.41 0.2250 0.2250   244.52 0.2500
  55.11   288.71 0.2250 0.2250   241.12 0.2500
  57.43   286.93 0.2250 0.2250   237.56 0.2500
  59.90   285.07 0.2250 0.2250   233.83 0.2500
  62.58   283.11 0.2250 0.2250   229.92 0.2500
  65.52   281.04 0.2250 0.2250   225.79 0.2500
  68.84   278.86 0.2250 0.2250   221.41 0.2500
  72.76   276.51 0.2250 0.2250   216.72 0.2500
  77.83   273.87 0.2250 0.2250   211.44 0.2500
  90.00   269.87 0.2250 0.2250   203.45 0.2500
