# Name of benchmark/experiment: FILLET Experiment 1a (warm start, au)
# Case number: 38
# Instellation (S_earth): 1.306122
# XCO2 (ppm): 280.0
# Obliquity (degrees): 20.0
# Mode: seasonal
#
# Columns of data (annually averaged for last orbit)
# Lat Tsurf Asurf ATOA OLR Fland
 -90.00   297.71 0.2250 0.2250   259.12 0.2500
 -77.83   302.80 0.2250 0.2250   269.30 0.2500
 -72.76   306.16 0.2250 0.2250   276.03 0.2500
 -68.84   309.15 0.2250 0.2250   282.01 0.2500
 -65.52   311.94 0.2250 0.2250   287.58 0.2500
 -62.58   314.57 0.2250 0.2250   292.84 0.2500
 -59.90   317.06 0.2250 0.2250   297.83 0.2500
 -57.43   319.44 0.2250 0.2250   302.58 0.2500
 -55.11   321.70 0.2250 0.2250   307.11 0.2500
 -52.92   323.87 0.2250 0.2250   311.44 0.2500
 -50.83   325.94 0.2250 0.2250   315.57 0.2500
 -48.83   327.91 0.2250 0.2250   319.52 0.2500
 -46.91   329.80 0.2250 0.2250   323.30 0.2500
 -45.06   331.61 0.2250 0.2250   326.92 0.2500
 -43.27   333.34 0.2250 0.2250   330.38 0.2500
 -41.52   334.99 0.2250 0.2250   333.69 0.2500
 -39.83   336.57 0.2250 0.2250   336.85 0.2500
 -38.17   338.08 0.2250 0.2250   339.87 0.2500
 -36.55   339.53 0.2250 0.2250   342.75 0.2500
 -34.96   340.90 0.2250 0.2250   345.50 0.2500
 -33.41   342.21 0.2250 0.2250   348.13 0.2500
 -31.88   343.46 0.2250 0.2250   350.63 0.2500
 -30.37   344.65 0.2250 0.2250   353.00 0.2500
 -28.89   345.78 0.2250 0.2250   355.26 0.2500
 -27.43   346.85 0.2250 0.2250   357.40 0.2500
 -25.99   347.86 0.2250 0.2250   359.42 0.2500
 -24.57   348.82 0.2250 0.2250   361.33 0.2500
 -23.16   349.72 0.2250 0.2250   363.13 0.2500
 -21.76   350.56 0.2250 0.2250   364.82 0.2500
 -20.38   351.35 0.2250 0.2250   366.41 0.2500
 -19.02   352.09 0.2250 0.2250   367.89 0.2500
 -17.66   352.78 0.2250 0.2250   369.26 0.2500
 -16.31   353.42 0.2250 0.2250   370.53 0.2500
 -14.98   354.00 0.2250 0.2250   371.70 0.2500
 -13.65   354.54 0.2250 0.2250   372.77 0.2500
 -12.33   355.02 0.2250 0.2250   373.74 0.2500
 -11.01   355.46 0.2250 0.2250   374.61 0.2500
  -9.70   355.84 0.2250 0.2250   375.38 0.2500
  -8.40   356.18 0.2250 0.2250   376.06 0.2500
  -7.10   356.47 0.2250 0.2250   376.63 0.2500
  -5.80   356.71 0.2250 0.2250   377.11 0.2500
  -4.51   356.90 0.2250 0.2250   377.50 0.2500
  -3.22   357.04 0.2250 0.2250   377.78 0.2500
  -1.93   357.14 0.2250 0.2250   377.97 0.2500
  -0.64   357.19 0.2250 0.2250   378.07 0.2500
   0.64   357.19 0.2250 0.2250   378.07 0.2500
   1.93   357.14 0.2250 0.2250   377.97 0.2500
   3.22   357.04 0.2250 0.2250   377.78 0.2500
   4.51   356.90 0.2250 0.2250   377.50 0.2500
   5.80   356.71 0.2250 0.2250   377.11 0.2500
   7.10   356.47 0.2250 0.2250   376.63 0.2500
   8.40   356.18 0.2250 0.2250   376.06 0.2500
   9.70   355.84 0.2250 0.2250   375.38 0.2500
  11.01   355.46 0.2250 0.2250   374.61 0.2500
  12.33   355.02 0.2250 0.2250   373.74 0.2500
  13.65   354.54 0.2250 0.2250   372.77 0.2500
  14.98   354.00 0.2250 0.2250   371.70 0.2500
  16.31   353.42 0.2250 0.2250   370.53 0.2500
  17.66   352.78 0.2250 0.2250   369.26 0.2500
  19.02   352.09 0.2250 0.2250   367.89 0.2500
  20.38   351.35 0.2250 0.2250   366.41 0.2500
  21.76   350.56 0.2250 0.2250   364.82 0.2500
  23.16   349.72 0.2250 0.2250   363.13 0.2500
  24.57   348.82 0.2250 0.2250   361.33 0.2500
  25.99   347.86 0.2250 0.2250   359.42 0.2500
  27.43   346.85 0.2250 0.2250   357.40 0.2500
  28.89   345.78 0.2250 0.2250   355.26 0.2500
  30.37   344.65 0.2250 0.2250   353.00 0.2500
  31.88   343.46 0.2250 0.2250   350.63 0.2500
  33.41   342.21 0.2250 0.2250   348.13 0.2500
  34.96   340.90 0.2250 0.2250   345.50 0.2500
  36.55   339.53 0.2250 0.2250   342.75 0.2500
  38.17   338.08 0.2250 0.2250   339.87 0.2500
  39.83   336.57 0.2250 0.2250   336.85 0.2500
  41.52   334.99 0.2250 0.2250   333.69 0.2500
  43.27   333.34 0.2250 0.2250   330.38 0.2500
  45.06   331.61 0.2250 0.2250   326.92 0.2500
  46.91   329.80 0.2250 0.2250   323.30 0.2500
  48.83   327.91 0.2250 0.2250   319.52 0.2500
  50.83   325.94 0.2250 0.2250   315.57 0.2500
  52.92   323.87 0.2250 0.2250   311.44 0.2500
  55.11   321.70 0.2250 0.2250   307.11 0.2500
  57.43   319.44 0.2250 0.2250   302.58 0.2500
  59.90   317.06 0.2250 0.2250   297.83 0.2500
  62.58   314.57 0.2250 0.2250   292.84 0.2500
  65.52   311.94 0.2250 0.2250   287.58 0.2500
  68.84   309.15 0.2250 0.2250   282.01 0.2500
  72.76   306.16 0.2250 0.2250   276.03 0.2500
  77.83   302.80 0.2250 0.2250   269.30 0.2500
  90.00   297.71 0.2250 0.2250   259.12 0.2500
