# Name of benchmark/experiment: FILLET Experiment 1a (warm start, au)
# Case number: 156
# Instellation (S_earth): 1.168736
# XCO2 (ppm): 280.0
# Obliquity (degrees): 80.0
# Mode: seasonal
#
# Columns of data (annually averaged for last orbit)
# Lat Tsurf Asurf ATOA OLR Fland
 -90.00   340.14 0.2250 0.2250   343.99 0.2500
 -77.83   338.63 0.2250 0.2250   340.95 0.2500
 -72.76   337.48 0.2250 0.2250   338.65 0.2500
 -68.84   336.40 0.2250 0.2250   336.49 0.2500
 -65.52   335.35 0.2250 0.2250   334.41 0.2500
 -62.58   334.34 0.2250 0.2250   332.38 0.2500
 -59.90   333.36 0.2250 0.2250   330.42 0.2500
 -57.43   332.41 0.2250 0.2250   328.52 0.2500
 -55.11   331.49 0.2250 0.2250   326.68 0.2500
 -52.92   330.59 0.2250 0.2250   324.88 0.2500
 -50.83   329.72 0.2250 0.2250   323.13 0.2500
 -48.83   328.86 0.2250 0.2250   321.41 0.2500
 -46.91   328.02 0.2250 0.2250   319.73 0.2500
 -45.06   327.19 0.2250 0.2250   318.09 0.2500
 -43.27   326.39 0.2250 0.2250   316.47 0.2500
 -41.52   325.60 0.2250 0.2250   314.89 0.2500
 -39.83   324.82 0.2250 0.2250   313.34 0.2500
 -38.17   324.07 0.2250 0.2250   311.83 0.2500
 -36.55   323.33 0.2250 0.2250   310.36 0.2500
 -34.96   322.61 0.2250 0.2250   308.93 0.2500
 -33.41   321.92 0.2250 0.2250   307.54 0.2500
 -31.88   321.25 0.2250 0.2250   306.20 0.2500
 -30.37   320.60 0.2250 0.2250   304.90 0.2500
 -28.89   319.98 0.2250 0.2250   303.66 0.2500
 -27.43   319.38 0.2250 0.2250   302.47 0.2500
 -25.99   318.81 0.2250 0.2250   301.33 0.2500
 -24.57   318.27 0.2250 0.2250   300.24 0.2500
 -23.16   317.75 0.2250 0.2250   299.20 0.2500
 -21.76   317.26 0.2250 0.2250   298.22 0.2500
 -20.38   316.79 0.2250 0.2250   297.28 0.2500
 -19.02   316.35 0.2250 0.2250   296.40 0.2500
 -17.66   315.94 0.2250 0.2250   295.57 0.2500
 -16.31   315.55 0.2250 0.2250   294.79 0.2500
 -14.98   315.18 0.2250 0.2250   294.07 0.2500
 -13.65   314.85 0.2250 0.2250   293.40 0.2500
 -12.33   314.54 0.2250 0.2250   292.78 0.2500
 -11.01   314.26 0.2250 0.2250   292.23 0.2500
  -9.70   314.02 0.2250 0.2250   291.73 0.2500
  -8.40   313.80 0.2250 0.2250   291.29 0.2500
  -7.10   313.61 0.2250 0.2250   290.92 0.2500
  -5.80   313.45 0.2250 0.2250   290.60 0.2500
  -4.51   313.33 0.2250 0.2250   290.35 0.2500
  -3.22   313.23 0.2250 0.2250   290.16 0.2500
  -1.93   313.17 0.2250 0.2250   290.04 0.2500
  -0.64   313.14 0.2250 0.2250   289.98 0.2500
   0.64   313.14 0.2250 0.2250   289.98 0.2500
   1.93   313.17 0.2250 0.2250   290.04 0.2500
   3.22   313.23 0.2250 0.2250   290.16 0.2500
   4.51   313.33 0.2250 0.2250   290.35 0.2500
   5.80   313.45 0.2250 0.2250   290.60 0.2500
   7.10   313.61 0.2250 0.2250   290.92 0.2500
   8.40   313.80 0.2250 0.2250   291.29 0.2500
   9.70   314.02 0.2250 0.2250   291.73 0.2500
  11.01   314.26 0.2250 0.2250   292.23 0.2500
  12.33   314.54 0.2250 0.2250   292.78 0.2500
  13.65   314.85 0.2250 0.2250   293.40 0.2500
  14.98   315.18 0.2250 0.2250   294.07 0.2500
  16.31   315.55 0.2250 0.2250   294.79 0.2500
  17.66   315.94 0.2250 0.2250   295.57 0.2500
  19.02   316.35 0.2250 0.2250   296.40 0.2500
  20.38   316.79 0.2250 0.2250   297.28 0.2500
  21.76   317.26 0.2250 0.2250   298.22 0.2500
  23.16   317.75 0.2250 0.2250   299.20 0.2500
  24.57   318.27 0.2250 0.2250   300.24 0.2500
  25.99   318.81 0.2250 0.2250   301.33 0.2500
  27.43   319.38 0.2250 0.2250   302.47 0.2500
  28.89   319.98 0.2250 0.2250   303.66 0.2500
  30.37   320.60 0.2250 0.2250   304.90 0.2500
  31.88   321.25 0.2250 0.2250   306.20 0.2500
  33.41   321.92 0.2250 0.2250   307.54 0.2500
  34.96   322.61 0.2250 0.2250   308.93 0.2500
  36.55   323.33 0.2250 0.2250   310.36 0.2500
  38.17   324.07 0.2250 0.2250   311.83 0.2500
  39.83   324.82 0.2250 0.2250   313.34 0.2500
  41.52   325.60 0.2250 0.2250   314.89 0.2500
  43.27   326.39 0.2250 0.2250   316.47 0.2500
  45.06   327.19 0.2250 0.2250   318.09 0.2500
  46.91   328.02 0.2250 0.2250   319.73 0.2500
  48.83   328.86 0.2250 0.2250   321.41 0.2500
  50.83   329.72 0.2250 0.2250   323.13 0.2500
  52.92   330.59 0.2250 0.2250   324.88 0.2500
  55.11   331.49 0.2250 0.2250   326.68 0.2500
  57.43   332.41 0.2250 0.2250   328.52 0.2500
  59.90   333.36 0.2250 0.2250   330.42 0.2500
  62.58   334.34 0.2250 0.2250   332.38 0.2500
  65.52   335.35 0.2250 0.2250   334.41 0.2500
  68.84   336.40 0.2250 0.2250   336.49 0.2500
  72.76   337.48 0.2250 0.2250   338.65 0.2500
  77.83   338.63 0.2250 0.2250   340.95 0.2500
  90.00   340.14 0.2250 0.2250   343.99 0.2500
