# Name of benchmark/experiment: FILLET Experiment 1a (warm start, au)
# Case number: 70
# Instellation (S_earth): 0.929017
# XCO2 (ppm): 280.0
# Obliquity (degrees): 30.0
# Mode: seasonal
#
# Columns of data (annually averaged for last orbit)
# Lat Tsurf Asurf ATOA OLR Fland
 -90.00   269.32 0.2250 0.2250   202.35 0.2500
 -77.83   271.58 0.2250 0.2250   206.87 0.2500
 -72.76   273.06 0.2250 0.2250   209.82 0.2500
 -68.84   274.39 0.2250 0.2250   212.48 0.2500
 -65.52   275.65 0.2250 0.2250   215.00 0.2500
 -62.58   276.87 0.2250 0.2250   217.45 0.2500
 -59.90   278.06 0.2250 0.2250   219.83 0.2500
 -57.43   279.23 0.2250 0.2250   222.15 0.2500
 -55.11   280.36 0.2250 0.2250   224.42 0.2500
 -52.92   281.47 0.2250 0.2250   226.63 0.2500
 -50.83   282.54 0.2250 0.2250   228.78 0.2500
 -48.83   283.58 0.2250 0.2250   230.86 0.2500
 -46.91   284.58 0.2250 0.2250   232.87 0.2500
 -45.06   285.55 0.2250 0.2250   234.81 0.2500
 -43.27   286.49 0.2250 0.2250   236.69 0.2500
 -41.52   287.40 0.2250 0.2250   238.49 0.2500
 -39.83   288.27 0.2250 0.2250   240.23 0.2500
 -38.17   289.10 0.2250 0.2250   241.90 0.2500
 -36.55   289.91 0.2250 0.2250   243.51 0.2500
 -34.96   290.68 0.2250 0.2250   245.05 0.2500
 -33.41   291.41 0.2250 0.2250   246.52 0.2500
 -31.88   292.12 0.2250 0.2250   247.93 0.2500
 -30.37   292.79 0.2250 0.2250   249.28 0.2500
 -28.89   293.43 0.2250 0.2250   250.56 0.2500
 -27.43   294.04 0.2250 0.2250   251.78 0.2500
 -25.99   294.62 0.2250 0.2250   252.94 0.2500
 -24.57   295.17 0.2250 0.2250   254.03 0.2500
 -23.16   295.68 0.2250 0.2250   255.07 0.2500
 -21.76   296.17 0.2250 0.2250   256.04 0.2500
 -20.38   296.63 0.2250 0.2250   256.96 0.2500
 -19.02   297.06 0.2250 0.2250   257.81 0.2500
 -17.66   297.45 0.2250 0.2250   258.61 0.2500
 -16.31   297.82 0.2250 0.2250   259.34 0.2500
 -14.98   298.16 0.2250 0.2250   260.02 0.2500
 -13.65   298.47 0.2250 0.2250   260.64 0.2500
 -12.33   298.75 0.2250 0.2250   261.21 0.2500
 -11.01   299.01 0.2250 0.2250   261.71 0.2500
  -9.70   299.23 0.2250 0.2250   262.16 0.2500
  -8.40   299.43 0.2250 0.2250   262.56 0.2500
  -7.10   299.60 0.2250 0.2250   262.89 0.2500
  -5.80   299.74 0.2250 0.2250   263.17 0.2500
  -4.51   299.85 0.2250 0.2250   263.40 0.2500
  -3.22   299.93 0.2250 0.2250   263.56 0.2500
  -1.93   299.99 0.2250 0.2250   263.68 0.2500
  -0.64   300.02 0.2250 0.2250   263.73 0.2500
   0.64   300.02 0.2250 0.2250   263.73 0.2500
   1.93   299.99 0.2250 0.2250   263.68 0.2500
   3.22   299.93 0.2250 0.2250   263.56 0.2500
   4.51   299.85 0.2250 0.2250   263.40 0.2500
   5.80   299.74 0.2250 0.2250   263.17 0.2500
   7.10   299.60 0.2250 0.2250   262.89 0.2500
   8.40   299.43 0.2250 0.2250   262.56 0.2500
   9.70   299.23 0.2250 0.2250   262.16 0.2500
  11.01   299.01 0.2250 0.2250   261.71 0.2500
  12.33   298.75 0.2250 0.2250   261.21 0.2500
  13.65   298.47 0.2250 0.2250   260.64 0.2500
  14.98   298.16 0.2250 0.2250   260.02 0.2500
  16.31   297.82 0.2250 0.2250   259.34 0.2500
  17.66   297.45 0.2250 0.2250   258.61 0.2500
  19.02   297.06 0.2250 0.2250   257.81 0.2500
  20.38   296.63 0.2250 0.2250   256.96 0.2500
  21.76   296.17 0.2250 0.2250   256.04 0.2500
  23.16   295.68 0.2250 0.2250   255.07 0.2500
  24.57   295.17 0.2250 0.2250   254.03 0.2500
  25.99   294.62 0.2250 0.2250   252.94 0.2500
  27.43   294.04 0.2250 0.2250   251.78 0.2500
  28.89   293.43 0.2250 0.2250   250.56 0.2500
  30.37   292.79 0.2250 0.2250   249.28 0.2500
  31.88   292.12 0.2250 0.2250   247.93 0.2500
  33.41   291.41 0.2250 0.2250   246.52 0.2500
  34.96   290.68 0.2250 0.2250   245.05 0.2500
  36.55   289.91 0.2250 0.2250   243.51 0.2500
  38.17   289.10 0.2250 0.2250   241.90 0.2500
  39.83   288.27 0.2250 0.2250   240.23 0.2500
  41.52   287.40 0.2250 0.2250   238.49 0.2500
  43.27   286.49 0.2250 0.2250   236.69 0.2500
  45.06   285.55 0.2250 0.2250   234.81 0.2500
  46.91   284.58 0.2250 0.2250   232.87 0.2500
  48.83   283.58 0.2250 0.2250   230.86 0.2500
  50.83   282.54 0.2250 0.2250   228.78 0.2500
  52.92   281.47 0.2250 0.2250   226.63 0.2500
  55.11   280.36 0.2250 0.2250   224.42 0.2500
  57.43   279.23 0.2250 0.2250   222.15 0.2500
  59.90   278.06 0.2250 0.2250   219.83 0.2500
  62.58   276.87 0.2250 0.2250   217.45 0.2500
  65.52   275.65 0.2250 0.2250   215.00 0.2500
  68.84   274.39 0.2250 0.2250   212.48 0.2500
  72.76   273.06 0.2250 0.2250   209.82 0.2500
  77.83   271.58 0.2250 0.2250   206.87 0.2500
  90.00   269.32 0.2250 0.2250   202.35 0.2500
