# Name of benchmark/experiment: FILLET Experiment 2 (cold start)
# Case number: 22
# Instellation (S_earth): 1.125
# XCO2 (ppm): 280.0
# Obliquity (degrees): 10.0
# Mode: seasonal
#
# Columns of data (annually averaged for last orbit)
# Lat Tsurf Asurf ATOA OLR Fland
 -90.00   221.10 0.6000 0.6000   105.91 0.2500
 -77.83   224.40 0.6000 0.6000   112.49 0.2500
 -72.76   226.49 0.6000 0.6000   116.68 0.2500
 -68.84   228.27 0.6000 0.6000   120.23 0.2500
 -65.52   229.86 0.6000 0.6000   123.43 0.2500
 -62.58   231.33 0.6000 0.6000   126.36 0.2500
 -59.90   232.70 0.6000 0.6000   129.10 0.2500
 -57.43   233.98 0.6000 0.6000   131.66 0.2500
 -55.11   235.19 0.6000 0.6000   134.08 0.2500
 -52.92   236.33 0.6000 0.6000   136.36 0.2500
 -50.83   237.41 0.6000 0.6000   138.53 0.2500
 -48.83   238.44 0.6000 0.6000   140.58 0.2500
 -46.91   239.42 0.6000 0.6000   142.54 0.2500
 -45.06   240.35 0.6000 0.6000   144.40 0.2500
 -43.27   241.24 0.6000 0.6000   146.17 0.2500
 -41.52   242.08 0.6000 0.6000   147.86 0.2500
 -39.83   242.89 0.6000 0.6000   149.47 0.2500
 -38.17   243.65 0.6000 0.6000   151.01 0.2500
 -36.55   244.38 0.6000 0.6000   152.46 0.2500
 -34.96   245.08 0.6000 0.6000   153.85 0.2500
 -33.41   245.74 0.6000 0.6000   155.17 0.2500
 -31.88   246.37 0.6000 0.6000   156.43 0.2500
 -30.37   246.96 0.6000 0.6000   157.62 0.2500
 -28.89   247.53 0.6000 0.6000   158.75 0.2500
 -27.43   248.06 0.6000 0.6000   159.82 0.2500
 -25.99   248.57 0.6000 0.6000   160.83 0.2500
 -24.57   249.04 0.6000 0.6000   161.79 0.2500
 -23.16   249.49 0.6000 0.6000   162.68 0.2500
 -21.76   249.91 0.6000 0.6000   163.52 0.2500
 -20.38   250.31 0.6000 0.6000   164.31 0.2500
 -19.02   250.67 0.6000 0.6000   165.05 0.2500
 -17.66   251.01 0.6000 0.6000   165.73 0.2500
 -16.31   251.33 0.6000 0.6000   166.36 0.2500
 -14.98   251.62 0.6000 0.6000   166.94 0.2500
 -13.65   251.89 0.6000 0.6000   167.47 0.2500
 -12.33   252.12 0.6000 0.6000   167.95 0.2500
 -11.01   252.34 0.6000 0.6000   168.38 0.2500
  -9.70   252.53 0.6000 0.6000   168.76 0.2500
  -8.40   252.70 0.6000 0.6000   169.10 0.2500
  -7.10   252.84 0.6000 0.6000   169.38 0.2500
  -5.80   252.96 0.6000 0.6000   169.62 0.2500
  -4.51   253.05 0.6000 0.6000   169.81 0.2500
  -3.22   253.12 0.6000 0.6000   169.95 0.2500
  -1.93   253.17 0.6000 0.6000   170.04 0.2500
  -0.64   253.19 0.6000 0.6000   170.09 0.2500
   0.64   253.19 0.6000 0.6000   170.09 0.2500
   1.93   253.17 0.6000 0.6000   170.04 0.2500
   3.22   253.12 0.6000 0.6000   169.95 0.2500
   4.51   253.05 0.6000 0.6000   169.81 0.2500
   5.80   252.96 0.6000 0.6000   169.62 0.2500
   7.10   252.84 0.6000 0.6000   169.38 0.2500
   8.40   252.70 0.6000 0.6000   169.10 0.2500
   9.70   252.53 0.6000 0.6000   168.76 0.2500
  11.01   252.34 0.6000 0.6000   168.38 0.2500
  12.33   252.12 0.6000 0.6000   167.95 0.2500
  13.65   251.89 0.6000 0.6000   167.47 0.2500
  14.98   251.62 0.6000 0.6000   166.94 0.2500
  16.31   251.33 0.6000 0.6000   166.36 0.2500
  17.66   251.01 0.6000 0.6000   165.73 0.2500
  19.02   250.67 0.6000 0.6000   165.05 0.2500
  20.38   250.31 0.6000 0.6000   164.31 0.2500
  21.76   249.91 0.6000 0.6000   163.52 0.2500
  23.16   249.49 0.6000 0.6000   162.68 0.2500
  24.57   249.04 0.6000 0.6000   161.79 0.2500
  25.99   248.57 0.6000 0.6000   160.83 0.2500
  27.43   248.06 0.6000 0.6000   159.82 0.2500
  28.89   247.53 0.6000 0.6000   158.75 0.2500
  30.37   246.96 0.6000 0.6000   157.62 0.2500
  31.88   246.37 0.6000 0.6000   156.43 0.2500
  33.41   245.74 0.6000 0.6000   155.17 0.2500
  34.96   245.08 0.6000 0.6000   153.85 0.2500
  36.55   244.38 0.6000 0.6000   152.46 0.2500
  38.17   243.65 0.6000 0.6000   151.01 0.2500
  39.83   242.89 0.6000 0.6000   149.47 0.2500
  41.52   242.08 0.6000 0.6000   147.86 0.2500
  43.27   241.24 0.6000 0.6000   146.17 0.2500
  45.06   240.35 0.6000 0.6000   144.40 0.2500
  46.91   239.42 0.6000 0.6000   142.54 0.2500
  48.83   238.44 0.6000 0.6000   140.58 0.2500
  50.83   237.41 0.6000 0.6000   138.53 0.2500
  52.92   236.33 0.6000 0.6000   136.36 0.2500
  55.11   235.19 0.6000 0.6000   134.08 0.2500
  57.43   233.98 0.6000 0.6000   131.66 0.2500
  59.90   232.70 0.6000 0.6000   129.10 0.2500
  62.58   231.33 0.6000 0.6000   126.36 0.2500
  65.52   229.86 0.6000 0.6000   123.43 0.2500
  68.84   228.27 0.6000 0.6000   120.23 0.2500
  72.76   226.49 0.6000 0.6000   116.68 0.2500
  77.83   224.40 0.6000 0.6000   112.49 0.2500
  90.00   221.10 0.6000 0.6000   105.91 0.2500
