# Name of benchmark/experiment: FILLET Experiment 2 (cold start)
# Case number: 96
# Instellation (S_earth): 1.075
# XCO2 (ppm): 280.0
# Obliquity (degrees): 50.0
# Mode: seasonal
#
# Columns of data (annually averaged for last orbit)
# Lat Tsurf Asurf ATOA OLR Fland
 -90.00   239.53 0.6000 0.6000   142.76 0.2500
 -77.83   239.68 0.6000 0.6000   143.06 0.2500
 -72.76   239.74 0.6000 0.6000   143.17 0.2500
 -68.84   239.78 0.6000 0.6000   143.25 0.2500
 -65.52   239.82 0.6000 0.6000   143.34 0.2500
 -62.58   239.87 0.6000 0.6000   143.43 0.2500
 -59.90   239.92 0.6000 0.6000   143.54 0.2500
 -57.43   239.98 0.6000 0.6000   143.66 0.2500
 -55.11   240.04 0.6000 0.6000   143.78 0.2500
 -52.92   240.11 0.6000 0.6000   143.92 0.2500
 -50.83   240.18 0.6000 0.6000   144.05 0.2500
 -48.83   240.25 0.6000 0.6000   144.20 0.2500
 -46.91   240.33 0.6000 0.6000   144.36 0.2500
 -45.06   240.42 0.6000 0.6000   144.53 0.2500
 -43.27   240.50 0.6000 0.6000   144.71 0.2500
 -41.52   240.60 0.6000 0.6000   144.90 0.2500
 -39.83   240.70 0.6000 0.6000   145.09 0.2500
 -38.17   240.80 0.6000 0.6000   145.29 0.2500
 -36.55   240.90 0.6000 0.6000   145.50 0.2500
 -34.96   241.00 0.6000 0.6000   145.71 0.2500
 -33.41   241.11 0.6000 0.6000   145.92 0.2500
 -31.88   241.21 0.6000 0.6000   146.13 0.2500
 -30.37   241.32 0.6000 0.6000   146.34 0.2500
 -28.89   241.42 0.6000 0.6000   146.54 0.2500
 -27.43   241.52 0.6000 0.6000   146.74 0.2500
 -25.99   241.62 0.6000 0.6000   146.94 0.2500
 -24.57   241.72 0.6000 0.6000   147.13 0.2500
 -23.16   241.81 0.6000 0.6000   147.32 0.2500
 -21.76   241.90 0.6000 0.6000   147.50 0.2500
 -20.38   241.98 0.6000 0.6000   147.67 0.2500
 -19.02   242.06 0.6000 0.6000   147.83 0.2500
 -17.66   242.14 0.6000 0.6000   147.98 0.2500
 -16.31   242.21 0.6000 0.6000   148.12 0.2500
 -14.98   242.28 0.6000 0.6000   148.26 0.2500
 -13.65   242.34 0.6000 0.6000   148.38 0.2500
 -12.33   242.40 0.6000 0.6000   148.49 0.2500
 -11.01   242.45 0.6000 0.6000   148.60 0.2500
  -9.70   242.49 0.6000 0.6000   148.69 0.2500
  -8.40   242.54 0.6000 0.6000   148.77 0.2500
  -7.10   242.57 0.6000 0.6000   148.84 0.2500
  -5.80   242.60 0.6000 0.6000   148.90 0.2500
  -4.51   242.62 0.6000 0.6000   148.94 0.2500
  -3.22   242.64 0.6000 0.6000   148.98 0.2500
  -1.93   242.65 0.6000 0.6000   149.00 0.2500
  -0.64   242.66 0.6000 0.6000   149.02 0.2500
   0.64   242.66 0.6000 0.6000   149.02 0.2500
   1.93   242.65 0.6000 0.6000   149.00 0.2500
   3.22   242.64 0.6000 0.6000   148.98 0.2500
   4.51   242.62 0.6000 0.6000   148.94 0.2500
   5.80   242.60 0.6000 0.6000   148.90 0.2500
   7.10   242.57 0.6000 0.6000   148.84 0.2500
   8.40   242.54 0.6000 0.6000   148.77 0.2500
   9.70   242.49 0.6000 0.6000   148.69 0.2500
  11.01   242.45 0.6000 0.6000   148.60 0.2500
  12.33   242.40 0.6000 0.6000   148.49 0.2500
  13.65   242.34 0.6000 0.6000   148.38 0.2500
  14.98   242.28 0.6000 0.6000   148.26 0.2500
  16.31   242.21 0.6000 0.6000   148.12 0.2500
  17.66   242.14 0.6000 0.6000   147.98 0.2500
  19.02   242.06 0.6000 0.6000   147.83 0.2500
  20.38   241.98 0.6000 0.6000   147.67 0.2500
  21.76   241.90 0.6000 0.6000   147.50 0.2500
  23.16   241.81 0.6000 0.6000   147.32 0.2500
  24.57   241.72 0.6000 0.6000   147.13 0.2500
  25.99   241.62 0.6000 0.6000   146.94 0.2500
  27.43   241.52 0.6000 0.6000   146.74 0.2500
  28.89   241.42 0.6000 0.6000   146.54 0.2500
  30.37   241.32 0.6000 0.6000   146.34 0.2500
  31.88   241.21 0.6000 0.6000   146.13 0.2500
  33.41   241.11 0.6000 0.6000   145.92 0.2500
  34.96   241.00 0.6000 0.6000   145.71 0.2500
  36.55   240.90 0.6000 0.6000   145.50 0.2500
  38.17   240.80 0.6000 0.6000   145.29 0.2500
  39.83   240.70 0.6000 0.6000   145.09 0.2500
  41.52   240.60 0.6000 0.6000   144.90 0.2500
  43.27   240.50 0.6000 0.6000   144.71 0.2500
  45.06   240.42 0.6000 0.6000   144.53 0.2500
  46.91   240.33 0.6000 0.6000   144.36 0.2500
  48.83   240.25 0.6000 0.6000   144.20 0.2500
  50.83   240.18 0.6000 0.6000   144.05 0.2500
  52.92   240.11 0.6000 0.6000   143.92 0.2500
  55.11   240.04 0.6000 0.6000   143.78 0.2500
  57.43   239.98 0.6000 0.6000   143.66 0.2500
  59.90   239.92 0.6000 0.6000   143.54 0.2500
  62.58   239.87 0.6000 0.6000   143.43 0.2500
  65.52   239.82 0.6000 0.6000   143.34 0.2500
  68.84   239.78 0.6000 0.6000   143.25 0.2500
  72.76   239.74 0.6000 0.6000   143.17 0.2500
  77.83   239.68 0.6000 0.6000   143.06 0.2500
  90.00   239.53 0.6000 0.6000   142.76 0.2500
