# Name of benchmark/experiment: FILLET Experiment 2 (cold start)
# Case number: 70
# Instellation (S_earth): 1.375
# XCO2 (ppm): 280.0
# Obliquity (degrees): 30.0
# Mode: seasonal
#
# Columns of data (annually averaged for last orbit)
# Lat Tsurf Asurf ATOA OLR Fland
 -90.00   317.89 0.2250 0.2250   299.49 0.2500
 -77.83   321.24 0.2250 0.2250   306.17 0.2500
 -72.76   323.42 0.2250 0.2250   310.54 0.2500
 -68.84   325.39 0.2250 0.2250   314.48 0.2500
 -65.52   327.26 0.2250 0.2250   318.22 0.2500
 -62.58   329.06 0.2250 0.2250   321.83 0.2500
 -59.90   330.83 0.2250 0.2250   325.36 0.2500
 -57.43   332.55 0.2250 0.2250   328.80 0.2500
 -55.11   334.23 0.2250 0.2250   332.16 0.2500
 -52.92   335.86 0.2250 0.2250   335.43 0.2500
 -50.83   337.45 0.2250 0.2250   338.60 0.2500
 -48.83   338.99 0.2250 0.2250   341.68 0.2500
 -46.91   340.48 0.2250 0.2250   344.65 0.2500
 -45.06   341.92 0.2250 0.2250   347.53 0.2500
 -43.27   343.30 0.2250 0.2250   350.31 0.2500
 -41.52   344.64 0.2250 0.2250   352.98 0.2500
 -39.83   345.93 0.2250 0.2250   355.56 0.2500
 -38.17   347.17 0.2250 0.2250   358.03 0.2500
 -36.55   348.35 0.2250 0.2250   360.41 0.2500
 -34.96   349.49 0.2250 0.2250   362.69 0.2500
 -33.41   350.58 0.2250 0.2250   364.87 0.2500
 -31.88   351.63 0.2250 0.2250   366.95 0.2500
 -30.37   352.62 0.2250 0.2250   368.95 0.2500
 -28.89   353.57 0.2250 0.2250   370.84 0.2500
 -27.43   354.47 0.2250 0.2250   372.65 0.2500
 -25.99   355.33 0.2250 0.2250   374.36 0.2500
 -24.57   356.14 0.2250 0.2250   375.98 0.2500
 -23.16   356.91 0.2250 0.2250   377.51 0.2500
 -21.76   357.63 0.2250 0.2250   378.96 0.2500
 -20.38   358.30 0.2250 0.2250   380.31 0.2500
 -19.02   358.94 0.2250 0.2250   381.57 0.2500
 -17.66   359.53 0.2250 0.2250   382.75 0.2500
 -16.31   360.07 0.2250 0.2250   383.84 0.2500
 -14.98   360.57 0.2250 0.2250   384.85 0.2500
 -13.65   361.03 0.2250 0.2250   385.77 0.2500
 -12.33   361.45 0.2250 0.2250   386.60 0.2500
 -11.01   361.82 0.2250 0.2250   387.35 0.2500
  -9.70   362.16 0.2250 0.2250   388.01 0.2500
  -8.40   362.45 0.2250 0.2250   388.60 0.2500
  -7.10   362.70 0.2250 0.2250   389.09 0.2500
  -5.80   362.90 0.2250 0.2250   389.51 0.2500
  -4.51   363.07 0.2250 0.2250   389.84 0.2500
  -3.22   363.19 0.2250 0.2250   390.09 0.2500
  -1.93   363.28 0.2250 0.2250   390.25 0.2500
  -0.64   363.32 0.2250 0.2250   390.34 0.2500
   0.64   363.32 0.2250 0.2250   390.34 0.2500
   1.93   363.28 0.2250 0.2250   390.25 0.2500
   3.22   363.19 0.2250 0.2250   390.09 0.2500
   4.51   363.07 0.2250 0.2250   389.84 0.2500
   5.80   362.90 0.2250 0.2250   389.51 0.2500
   7.10   362.70 0.2250 0.2250   389.09 0.2500
   8.40   362.45 0.2250 0.2250   388.60 0.2500
   9.70   362.16 0.2250 0.2250   388.01 0.2500
  11.01   361.82 0.2250 0.2250   387.35 0.2500
  12.33   361.45 0.2250 0.2250   386.60 0.2500
  13.65   361.03 0.2250 0.2250   385.77 0.2500
  14.98   360.57 0.2250 0.2250   384.85 0.2500
  16.31   360.07 0.2250 0.2250   383.84 0.2500
  17.66   359.53 0.2250 0.2250   382.75 0.2500
  19.02   358.94 0.2250 0.2250   381.57 0.2500
  20.38   358.30 0.2250 0.2250   380.31 0.2500
  21.76   357.63 0.2250 0.2250   378.96 0.2500
  23.16   356.91 0.2250 0.2250   377.51 0.2500
  24.57   356.14 0.2250 0.2250   375.98 0.2500
  25.99   355.33 0.2250 0.2250   374.36 0.2500
  27.43   354.47 0.2250 0.2250   372.65 0.2500
  28.89   353.57 0.2250 0.2250   370.84 0.2500
  30.37   352.62 0.2250 0.2250   368.95 0.2500
  31.88   351.63 0.2250 0.2250   366.95 0.2500
  33.41   350.58 0.2250 0.2250   364.87 0.2500
  34.96   349.49 0.2250 0.2250   362.69 0.2500
  36.55   348.35 0.2250 0.2250   360.41 0.2500
  38.17   347.17 0.2250 0.2250   358.03 0.2500
  39.83   345.93 0.2250 0.2250   355.56 0.2500
  41.52   344.64 0.2250 0.2250   352.98 0.2500
  43.27   343.30 0.2250 0.2250   350.31 0.2500
  45.06   341.92 0.2250 0.2250   347.53 0.2500
  46.91   340.48 0.2250 0.2250   344.65 0.2500
  48.83   338.99 0.2250 0.2250   341.68 0.2500
  50.83   337.45 0.2250 0.2250   338.60 0.2500
  52.92   335.86 0.2250 0.2250   335.43 0.2500
  55.11   334.23 0.2250 0.2250   332.16 0.2500
  57.43   332.55 0.2250 0.2250   328.80 0.2500
  59.90   330.83 0.2250 0.2250   325.36 0.2500
  62.58   329.06 0.2250 0.2250   321.83 0.2500
  65.52   327.26 0.2250 0.2250   318.22 0.2500
  68.84   325.39 0.2250 0.2250   314.48 0.2500
  72.76   323.42 0.2250 0.2250   310.54 0.2500
  77.83   321.24 0.2250 0.2250   306.17 0.2500
  90.00   317.89 0.2250 0.2250   299.49 0.2500
