# Name of benchmark/experiment: FILLET Experiment 2 (cold start)
# Case number: 124
# Instellation (S_earth): 1.3
# XCO2 (ppm): 280.0
# Obliquity (degrees): 60.0
# Mode: seasonal
#
# Columns of data (annually averaged for last orbit)
# Lat Tsurf Asurf ATOA OLR Fland
 -90.00   346.12 0.2250 0.2250   355.95 0.2500
 -77.83   345.52 0.2250 0.2250   354.74 0.2500
 -72.76   344.99 0.2250 0.2250   353.67 0.2500
 -68.84   344.47 0.2250 0.2250   352.64 0.2500
 -65.52   343.98 0.2250 0.2250   351.66 0.2500
 -62.58   343.52 0.2250 0.2250   350.73 0.2500
 -59.90   343.08 0.2250 0.2250   349.86 0.2500
 -57.43   342.67 0.2250 0.2250   349.04 0.2500
 -55.11   342.27 0.2250 0.2250   348.25 0.2500
 -52.92   341.90 0.2250 0.2250   347.49 0.2500
 -50.83   341.54 0.2250 0.2250   346.77 0.2500
 -48.83   341.19 0.2250 0.2250   346.08 0.2500
 -46.91   340.85 0.2250 0.2250   345.41 0.2500
 -45.06   340.54 0.2250 0.2250   344.78 0.2500
 -43.27   340.24 0.2250 0.2250   344.17 0.2500
 -41.52   339.95 0.2250 0.2250   343.61 0.2500
 -39.83   339.69 0.2250 0.2250   343.08 0.2500
 -38.17   339.45 0.2250 0.2250   342.59 0.2500
 -36.55   339.22 0.2250 0.2250   342.14 0.2500
 -34.96   339.02 0.2250 0.2250   341.73 0.2500
 -33.41   338.83 0.2250 0.2250   341.35 0.2500
 -31.88   338.65 0.2250 0.2250   341.01 0.2500
 -30.37   338.50 0.2250 0.2250   340.70 0.2500
 -28.89   338.36 0.2250 0.2250   340.41 0.2500
 -27.43   338.23 0.2250 0.2250   340.16 0.2500
 -25.99   338.12 0.2250 0.2250   339.94 0.2500
 -24.57   338.02 0.2250 0.2250   339.74 0.2500
 -23.16   337.93 0.2250 0.2250   339.56 0.2500
 -21.76   337.85 0.2250 0.2250   339.41 0.2500
 -20.38   337.78 0.2250 0.2250   339.27 0.2500
 -19.02   337.72 0.2250 0.2250   339.15 0.2500
 -17.66   337.67 0.2250 0.2250   339.05 0.2500
 -16.31   337.63 0.2250 0.2250   338.95 0.2500
 -14.98   337.59 0.2250 0.2250   338.88 0.2500
 -13.65   337.55 0.2250 0.2250   338.81 0.2500
 -12.33   337.53 0.2250 0.2250   338.75 0.2500
 -11.01   337.50 0.2250 0.2250   338.70 0.2500
  -9.70   337.48 0.2250 0.2250   338.66 0.2500
  -8.40   337.46 0.2250 0.2250   338.63 0.2500
  -7.10   337.45 0.2250 0.2250   338.60 0.2500
  -5.80   337.44 0.2250 0.2250   338.58 0.2500
  -4.51   337.43 0.2250 0.2250   338.56 0.2500
  -3.22   337.42 0.2250 0.2250   338.55 0.2500
  -1.93   337.42 0.2250 0.2250   338.54 0.2500
  -0.64   337.42 0.2250 0.2250   338.53 0.2500
   0.64   337.42 0.2250 0.2250   338.53 0.2500
   1.93   337.42 0.2250 0.2250   338.54 0.2500
   3.22   337.42 0.2250 0.2250   338.55 0.2500
   4.51   337.43 0.2250 0.2250   338.56 0.2500
   5.80   337.44 0.2250 0.2250   338.58 0.2500
   7.10   337.45 0.2250 0.2250   338.60 0.2500
   8.40   337.46 0.2250 0.2250   338.63 0.2500
   9.70   337.48 0.2250 0.2250   338.66 0.2500
  11.01   337.50 0.2250 0.2250   338.70 0.2500
  12.33   337.53 0.2250 0.2250   338.75 0.2500
  13.65   337.55 0.2250 0.2250   338.81 0.2500
  14.98   337.59 0.2250 0.2250   338.88 0.2500
  16.31   337.63 0.2250 0.2250   338.95 0.2500
  17.66   337.67 0.2250 0.2250   339.05 0.2500
  19.02   337.72 0.2250 0.2250   339.15 0.2500
  20.38   337.78 0.2250 0.2250   339.27 0.2500
  21.76   337.85 0.2250 0.2250   339.41 0.2500
  23.16   337.93 0.2250 0.2250   339.56 0.2500
  24.57   338.02 0.2250 0.2250   339.74 0.2500
  25.99   338.12 0.2250 0.2250   339.94 0.2500
  27.43   338.23 0.2250 0.2250   340.16 0.2500
  28.89   338.36 0.2250 0.2250   340.41 0.2500
  30.37   338.50 0.2250 0.2250   340.70 0.2500
  31.88   338.65 0.2250 0.2250   341.01 0.2500
  33.41   338.83 0.2250 0.2250   341.35 0.2500
  34.96   339.02 0.2250 0.2250   341.73 0.2500
  36.55   339.22 0.2250 0.2250   342.14 0.2500
  38.17   339.45 0.2250 0.2250   342.59 0.2500
  39.83   339.69 0.2250 0.2250   343.08 0.2500
  41.52   339.95 0.2250 0.2250   343.61 0.2500
  43.27   340.24 0.2250 0.2250   344.17 0.2500
  45.06   340.54 0.2250 0.2250   344.78 0.2500
  46.91   340.85 0.2250 0.2250   345.41 0.2500
  48.83   341.19 0.2250 0.2250   346.08 0.2500
  50.83   341.54 0.2250 0.2250   346.77 0.2500
  52.92   341.90 0.2250 0.2250   347.49 0.2500
  55.11   342.27 0.2250 0.2250   348.25 0.2500
  57.43   342.67 0.2250 0.2250   349.04 0.2500
  59.90   343.08 0.2250 0.2250   349.86 0.2500
  62.58   343.52 0.2250 0.2250   350.73 0.2500
  65.52   343.98 0.2250 0.2250   351.66 0.2500
  68.84   344.47 0.2250 0.2250   352.64 0.2500
  72.76   344.99 0.2250 0.2250   353.67 0.2500
  77.83   345.52 0.2250 0.2250   354.74 0.2500
  90.00   346.12 0.2250 0.2250   355.95 0.2500
