# Name of benchmark/experiment: FILLET Experiment 3 (instellation bifurcation)
# Case number: 24
# Branch: cooling
# Instellation (S_earth): 1.2
# XCO2 (ppm): 280.0
# Obliquity (degrees): 23.5
# Mode: seasonal
#
# Columns of data (annually averaged for last orbit)
# Lat Tsurf Asurf ATOA OLR Fland
 -90.00   291.10 0.2250 0.2250   245.89 0.2500
 -77.83   295.12 0.2250 0.2250   253.93 0.2500
 -72.76   297.78 0.2250 0.2250   259.26 0.2500
 -68.84   300.16 0.2250 0.2250   264.01 0.2500
 -65.52   302.39 0.2250 0.2250   268.49 0.2500
 -62.58   304.53 0.2250 0.2250   272.76 0.2500
 -59.90   306.58 0.2250 0.2250   276.86 0.2500
 -57.43   308.54 0.2250 0.2250   280.79 0.2500
 -55.11   310.43 0.2250 0.2250   284.56 0.2500
 -52.92   312.24 0.2250 0.2250   288.18 0.2500
 -50.83   313.98 0.2250 0.2250   291.65 0.2500
 -48.83   315.64 0.2250 0.2250   294.99 0.2500
 -46.91   317.24 0.2250 0.2250   298.19 0.2500
 -45.06   318.78 0.2250 0.2250   301.26 0.2500
 -43.27   320.25 0.2250 0.2250   304.20 0.2500
 -41.52   321.66 0.2250 0.2250   307.02 0.2500
 -39.83   323.01 0.2250 0.2250   309.72 0.2500
 -38.17   324.30 0.2250 0.2250   312.31 0.2500
 -36.55   325.54 0.2250 0.2250   314.78 0.2500
 -34.96   326.72 0.2250 0.2250   317.14 0.2500
 -33.41   327.85 0.2250 0.2250   319.39 0.2500
 -31.88   328.92 0.2250 0.2250   321.54 0.2500
 -30.37   329.94 0.2250 0.2250   323.58 0.2500
 -28.89   330.91 0.2250 0.2250   325.53 0.2500
 -27.43   331.84 0.2250 0.2250   327.37 0.2500
 -25.99   332.71 0.2250 0.2250   329.12 0.2500
 -24.57   333.54 0.2250 0.2250   330.77 0.2500
 -23.16   334.31 0.2250 0.2250   332.33 0.2500
 -21.76   335.04 0.2250 0.2250   333.79 0.2500
 -20.38   335.73 0.2250 0.2250   335.16 0.2500
 -19.02   336.37 0.2250 0.2250   336.44 0.2500
 -17.66   336.97 0.2250 0.2250   337.63 0.2500
 -16.31   337.52 0.2250 0.2250   338.73 0.2500
 -14.98   338.02 0.2250 0.2250   339.75 0.2500
 -13.65   338.49 0.2250 0.2250   340.67 0.2500
 -12.33   338.91 0.2250 0.2250   341.51 0.2500
 -11.01   339.28 0.2250 0.2250   342.27 0.2500
  -9.70   339.62 0.2250 0.2250   342.94 0.2500
  -8.40   339.91 0.2250 0.2250   343.52 0.2500
  -7.10   340.16 0.2250 0.2250   344.02 0.2500
  -5.80   340.37 0.2250 0.2250   344.44 0.2500
  -4.51   340.54 0.2250 0.2250   344.77 0.2500
  -3.22   340.66 0.2250 0.2250   345.02 0.2500
  -1.93   340.74 0.2250 0.2250   345.19 0.2500
  -0.64   340.78 0.2250 0.2250   345.27 0.2500
   0.64   340.78 0.2250 0.2250   345.27 0.2500
   1.93   340.74 0.2250 0.2250   345.19 0.2500
   3.22   340.66 0.2250 0.2250   345.02 0.2500
   4.51   340.54 0.2250 0.2250   344.77 0.2500
   5.80   340.37 0.2250 0.2250   344.44 0.2500
   7.10   340.16 0.2250 0.2250   344.02 0.2500
   8.40   339.91 0.2250 0.2250   343.52 0.2500
   9.70   339.62 0.2250 0.2250   342.94 0.2500
  11.01   339.28 0.2250 0.2250   342.27 0.2500
  12.33   338.91 0.2250 0.2250   341.51 0.2500
  13.65   338.49 0.2250 0.2250   340.67 0.2500
  14.98   338.02 0.2250 0.2250   339.75 0.2500
  16.31   337.52 0.2250 0.2250   338.73 0.2500
  17.66   336.97 0.2250 0.2250   337.63 0.2500
  19.02   336.37 0.2250 0.2250   336.44 0.2500
  20.38   335.73 0.2250 0.2250   335.16 0.2500
  21.76   335.04 0.2250 0.2250   333.79 0.2500
  23.16   334.31 0.2250 0.2250   332.33 0.2500
  24.57   333.54 0.2250 0.2250   330.77 0.2500
  25.99   332.71 0.2250 0.2250   329.12 0.2500
  27.43   331.84 0.2250 0.2250   327.37 0.2500
  28.89   330.91 0.2250 0.2250   325.53 0.2500
  30.37   329.94 0.2250 0.2250   323.58 0.2500
  31.88   328.92 0.2250 0.2250   321.54 0.2500
  33.41   327.85 0.2250 0.2250   319.39 0.2500
  34.96   326.72 0.2250 0.2250   317.14 0.2500
  36.55   325.54 0.2250 0.2250   314.78 0.2500
  38.17   324.30 0.2250 0.2250   312.31 0.2500
  39.83   323.01 0.2250 0.2250   309.72 0.2500
  41.52   321.66 0.2250 0.2250   307.02 0.2500
  43.27   320.25 0.2250 0.2250   304.20 0.2500
  45.06   318.78 0.2250 0.2250   301.26 0.2500
  46.91   317.24 0.2250 0.2250   298.19 0.2500
  48.83   315.64 0.2250 0.2250   294.99 0.2500
  50.83   313.98 0.2250 0.2250   291.65 0.2500
  52.92   312.24 0.2250 0.2250   288.18 0.2500
  55.11   310.43 0.2250 0.2250   284.56 0.2500
  57.43   308.54 0.2250 0.2250   280.79 0.2500
  59.90   306.58 0.2250 0.2250   276.86 0.2500
  62.58   304.53 0.2250 0.2250   272.76 0.2500
  65.52   302.39 0.2250 0.2250   268.49 0.2500
  68.84   300.16 0.2250 0.2250   264.01 0.2500
  72.76   297.78 0.2250 0.2250   259.26 0.2500
  77.83   295.12 0.2250 0.2250   253.93 0.2500
  90.00   291.10 0.2250 0.2250   245.89 0.2500
