# Name of benchmark/experiment: FILLET Experiment 3 (instellation bifurcation)
# Case number: 79
# Branch: warming
# Instellation (S_earth): 1.075
# XCO2 (ppm): 280.0
# Obliquity (degrees): 23.5
# Mode: seasonal
#
# Columns of data (annually averaged for last orbit)
# Lat Tsurf Asurf ATOA OLR Fland
 -90.00   225.00 0.6000 0.6000   113.69 0.2500
 -77.83   226.85 0.6000 0.6000   117.41 0.2500
 -72.76   228.09 0.6000 0.6000   119.87 0.2500
 -68.84   229.18 0.6000 0.6000   122.07 0.2500
 -65.52   230.22 0.6000 0.6000   124.14 0.2500
 -62.58   231.21 0.6000 0.6000   126.11 0.2500
 -59.90   232.15 0.6000 0.6000   128.01 0.2500
 -57.43   233.06 0.6000 0.6000   129.83 0.2500
 -55.11   233.93 0.6000 0.6000   131.57 0.2500
 -52.92   234.77 0.6000 0.6000   133.24 0.2500
 -50.83   235.58 0.6000 0.6000   134.85 0.2500
 -48.83   236.35 0.6000 0.6000   136.39 0.2500
 -46.91   237.09 0.6000 0.6000   137.87 0.2500
 -45.06   237.80 0.6000 0.6000   139.29 0.2500
 -43.27   238.48 0.6000 0.6000   140.65 0.2500
 -41.52   239.13 0.6000 0.6000   141.95 0.2500
 -39.83   239.75 0.6000 0.6000   143.20 0.2500
 -38.17   240.35 0.6000 0.6000   144.40 0.2500
 -36.55   240.92 0.6000 0.6000   145.54 0.2500
 -34.96   241.47 0.6000 0.6000   146.63 0.2500
 -33.41   241.99 0.6000 0.6000   147.67 0.2500
 -31.88   242.48 0.6000 0.6000   148.67 0.2500
 -30.37   242.96 0.6000 0.6000   149.61 0.2500
 -28.89   243.41 0.6000 0.6000   150.51 0.2500
 -27.43   243.83 0.6000 0.6000   151.36 0.2500
 -25.99   244.24 0.6000 0.6000   152.17 0.2500
 -24.57   244.62 0.6000 0.6000   152.94 0.2500
 -23.16   244.98 0.6000 0.6000   153.66 0.2500
 -21.76   245.32 0.6000 0.6000   154.33 0.2500
 -20.38   245.63 0.6000 0.6000   154.97 0.2500
 -19.02   245.93 0.6000 0.6000   155.56 0.2500
 -17.66   246.20 0.6000 0.6000   156.11 0.2500
 -16.31   246.46 0.6000 0.6000   156.62 0.2500
 -14.98   246.69 0.6000 0.6000   157.09 0.2500
 -13.65   246.91 0.6000 0.6000   157.51 0.2500
 -12.33   247.10 0.6000 0.6000   157.90 0.2500
 -11.01   247.28 0.6000 0.6000   158.25 0.2500
  -9.70   247.43 0.6000 0.6000   158.56 0.2500
  -8.40   247.57 0.6000 0.6000   158.83 0.2500
  -7.10   247.68 0.6000 0.6000   159.06 0.2500
  -5.80   247.78 0.6000 0.6000   159.26 0.2500
  -4.51   247.85 0.6000 0.6000   159.41 0.2500
  -3.22   247.91 0.6000 0.6000   159.52 0.2500
  -1.93   247.95 0.6000 0.6000   159.60 0.2500
  -0.64   247.97 0.6000 0.6000   159.64 0.2500
   0.64   247.97 0.6000 0.6000   159.64 0.2500
   1.93   247.95 0.6000 0.6000   159.60 0.2500
   3.22   247.91 0.6000 0.6000   159.52 0.2500
   4.51   247.85 0.6000 0.6000   159.41 0.2500
   5.80   247.78 0.6000 0.6000   159.26 0.2500
   7.10   247.68 0.6000 0.6000   159.06 0.2500
   8.40   247.57 0.6000 0.6000   158.83 0.2500
   9.70   247.43 0.6000 0.6000   158.56 0.2500
  11.01   247.28 0.6000 0.6000   158.25 0.2500
  12.33   247.10 0.6000 0.6000   157.90 0.2500
  13.65   246.91 0.6000 0.6000   157.51 0.2500
  14.98   246.69 0.6000 0.6000   157.09 0.2500
  16.31   246.46 0.6000 0.6000   156.62 0.2500
  17.66   246.20 0.6000 0.6000   156.11 0.2500
  19.02   245.93 0.6000 0.6000   155.56 0.2500
  20.38   245.63 0.6000 0.6000   154.97 0.2500
  21.76   245.32 0.6000 0.6000   154.33 0.2500
  23.16   244.98 0.6000 0.6000   153.66 0.2500
  24.57   244.62 0.6000 0.6000   152.94 0.2500
  25.99   244.24 0.6000 0.6000   152.17 0.2500
  27.43   243.83 0.6000 0.6000   151.36 0.2500
  28.89   243.41 0.6000 0.6000   150.51 0.2500
  30.37   242.96 0.6000 0.6000   149.61 0.2500
  31.88   242.48 0.6000 0.6000   148.67 0.2500
  33.41   241.99 0.6000 0.6000   147.67 0.2500
  34.96   241.47 0.6000 0.6000   146.63 0.2500
  36.55   240.92 0.6000 0.6000   145.54 0.2500
  38.17   240.35 0.6000 0.6000   144.40 0.2500
  39.83   239.75 0.6000 0.6000   143.20 0.2500
  41.52   239.13 0.6000 0.6000   141.95 0.2500
  43.27   238.48 0.6000 0.6000   140.65 0.2500
  45.06   237.80 0.6000 0.6000   139.29 0.2500
  46.91   237.09 0.6000 0.6000   137.87 0.2500
  48.83   236.35 0.6000 0.6000   136.39 0.2500
  50.83   235.58 0.6000 0.6000   134.85 0.2500
  52.92   234.77 0.6000 0.6000   133.24 0.2500
  55.11   233.93 0.6000 0.6000   131.57 0.2500
  57.43   233.06 0.6000 0.6000   129.83 0.2500
  59.90   232.15 0.6000 0.6000   128.01 0.2500
  62.58   231.21 0.6000 0.6000   126.11 0.2500
  65.52   230.22 0.6000 0.6000   124.14 0.2500
  68.84   229.18 0.6000 0.6000   122.07 0.2500
  72.76   228.09 0.6000 0.6000   119.87 0.2500
  77.83   226.85 0.6000 0.6000   117.41 0.2500
  90.00   225.00 0.6000 0.6000   113.69 0.2500
