# Name of benchmark/experiment: FILLET Experiment 3 (instellation bifurcation)
# Case number: 10
# Branch: cooling
# Instellation (S_earth): 1.375
# XCO2 (ppm): 280.0
# Obliquity (degrees): 23.5
# Mode: seasonal
#
# Columns of data (annually averaged for last orbit)
# Lat Tsurf Asurf ATOA OLR Fland
 -90.00   309.03 0.2250 0.2250   281.75 0.2500
 -77.83   313.63 0.2250 0.2250   290.96 0.2500
 -72.76   316.69 0.2250 0.2250   297.07 0.2500
 -68.84   319.41 0.2250 0.2250   302.51 0.2500
 -65.52   321.97 0.2250 0.2250   307.64 0.2500
 -62.58   324.42 0.2250 0.2250   312.54 0.2500
 -59.90   326.77 0.2250 0.2250   317.23 0.2500
 -57.43   329.02 0.2250 0.2250   321.74 0.2500
 -55.11   331.18 0.2250 0.2250   326.06 0.2500
 -52.92   333.25 0.2250 0.2250   330.21 0.2500
 -50.83   335.24 0.2250 0.2250   334.19 0.2500
 -48.83   337.15 0.2250 0.2250   338.01 0.2500
 -46.91   338.99 0.2250 0.2250   341.68 0.2500
 -45.06   340.75 0.2250 0.2250   345.19 0.2500
 -43.27   342.43 0.2250 0.2250   348.56 0.2500
 -41.52   344.05 0.2250 0.2250   351.79 0.2500
 -39.83   345.59 0.2250 0.2250   354.89 0.2500
 -38.17   347.07 0.2250 0.2250   357.85 0.2500
 -36.55   348.49 0.2250 0.2250   360.68 0.2500
 -34.96   349.84 0.2250 0.2250   363.39 0.2500
 -33.41   351.13 0.2250 0.2250   365.97 0.2500
 -31.88   352.37 0.2250 0.2250   368.43 0.2500
 -30.37   353.54 0.2250 0.2250   370.77 0.2500
 -28.89   354.65 0.2250 0.2250   373.00 0.2500
 -27.43   355.71 0.2250 0.2250   375.11 0.2500
 -25.99   356.71 0.2250 0.2250   377.12 0.2500
 -24.57   357.65 0.2250 0.2250   379.01 0.2500
 -23.16   358.55 0.2250 0.2250   380.79 0.2500
 -21.76   359.38 0.2250 0.2250   382.47 0.2500
 -20.38   360.17 0.2250 0.2250   384.04 0.2500
 -19.02   360.90 0.2250 0.2250   385.51 0.2500
 -17.66   361.58 0.2250 0.2250   386.87 0.2500
 -16.31   362.22 0.2250 0.2250   388.13 0.2500
 -14.98   362.80 0.2250 0.2250   389.29 0.2500
 -13.65   363.33 0.2250 0.2250   390.36 0.2500
 -12.33   363.81 0.2250 0.2250   391.32 0.2500
 -11.01   364.24 0.2250 0.2250   392.18 0.2500
  -9.70   364.62 0.2250 0.2250   392.95 0.2500
  -8.40   364.96 0.2250 0.2250   393.62 0.2500
  -7.10   365.25 0.2250 0.2250   394.19 0.2500
  -5.80   365.48 0.2250 0.2250   394.67 0.2500
  -4.51   365.68 0.2250 0.2250   395.05 0.2500
  -3.22   365.82 0.2250 0.2250   395.34 0.2500
  -1.93   365.91 0.2250 0.2250   395.53 0.2500
  -0.64   365.96 0.2250 0.2250   395.62 0.2500
   0.64   365.96 0.2250 0.2250   395.62 0.2500
   1.93   365.91 0.2250 0.2250   395.53 0.2500
   3.22   365.82 0.2250 0.2250   395.34 0.2500
   4.51   365.68 0.2250 0.2250   395.05 0.2500
   5.80   365.48 0.2250 0.2250   394.67 0.2500
   7.10   365.25 0.2250 0.2250   394.19 0.2500
   8.40   364.96 0.2250 0.2250   393.62 0.2500
   9.70   364.62 0.2250 0.2250   392.95 0.2500
  11.01   364.24 0.2250 0.2250   392.18 0.2500
  12.33   363.81 0.2250 0.2250   391.32 0.2500
  13.65   363.33 0.2250 0.2250   390.36 0.2500
  14.98   362.80 0.2250 0.2250   389.29 0.2500
  16.31   362.22 0.2250 0.2250   388.13 0.2500
  17.66   361.58 0.2250 0.2250   386.87 0.2500
  19.02   360.90 0.2250 0.2250   385.51 0.2500
  20.38   360.17 0.2250 0.2250   384.04 0.2500
  21.76   359.38 0.2250 0.2250   382.47 0.2500
  23.16   358.55 0.2250 0.2250   380.79 0.2500
  24.57   357.65 0.2250 0.2250   379.01 0.2500
  25.99   356.71 0.2250 0.2250   377.12 0.2500
  27.43   355.71 0.2250 0.2250   375.11 0.2500
  28.89   354.65 0.2250 0.2250   373.00 0.2500
  30.37   353.54 0.2250 0.2250   370.77 0.2500
  31.88   352.37 0.2250 0.2250   368.43 0.2500
  33.41   351.13 0.2250 0.2250   365.97 0.2500
  34.96   349.84 0.2250 0.2250   363.39 0.2500
  36.55   348.49 0.2250 0.2250   360.68 0.2500
  38.17   347.07 0.2250 0.2250   357.85 0.2500
  39.83   345.59 0.2250 0.2250   354.89 0.2500
  41.52   344.05 0.2250 0.2250   351.79 0.2500
  43.27   342.43 0.2250 0.2250   348.56 0.2500
  45.06   340.75 0.2250 0.2250   345.19 0.2500
  46.91   338.99 0.2250 0.2250   341.68 0.2500
  48.83   337.15 0.2250 0.2250   338.01 0.2500
  50.83   335.24 0.2250 0.2250   334.19 0.2500
  52.92   333.25 0.2250 0.2250   330.21 0.2500
  55.11   331.18 0.2250 0.2250   326.06 0.2500
  57.43   329.02 0.2250 0.2250   321.74 0.2500
  59.90   326.77 0.2250 0.2250   317.23 0.2500
  62.58   324.42 0.2250 0.2250   312.54 0.2500
  65.52   321.97 0.2250 0.2250   307.64 0.2500
  68.84   319.41 0.2250 0.2250   302.51 0.2500
  72.76   316.69 0.2250 0.2250   297.07 0.2500
  77.83   313.63 0.2250 0.2250   290.96 0.2500
  90.00   309.03 0.2250 0.2250   281.75 0.2500
