# Name of benchmark/experiment: FILLET Experiment 3 (instellation bifurcation)
# Case number: 93
# Branch: warming
# Instellation (S_earth): 1.25
# XCO2 (ppm): 280.0
# Obliquity (degrees): 23.5
# Mode: seasonal
#
# Columns of data (annually averaged for last orbit)
# Lat Tsurf Asurf ATOA OLR Fland
 -90.00   234.25 0.6000 0.6000   132.20 0.2500
 -77.83   236.41 0.6000 0.6000   136.52 0.2500
 -72.76   237.84 0.6000 0.6000   139.39 0.2500
 -68.84   239.12 0.6000 0.6000   141.94 0.2500
 -65.52   240.32 0.6000 0.6000   144.35 0.2500
 -62.58   241.47 0.6000 0.6000   146.64 0.2500
 -59.90   242.57 0.6000 0.6000   148.85 0.2500
 -57.43   243.63 0.6000 0.6000   150.96 0.2500
 -55.11   244.64 0.6000 0.6000   152.99 0.2500
 -52.92   245.62 0.6000 0.6000   154.93 0.2500
 -50.83   246.55 0.6000 0.6000   156.80 0.2500
 -48.83   247.45 0.6000 0.6000   158.60 0.2500
 -46.91   248.31 0.6000 0.6000   160.32 0.2500
 -45.06   249.13 0.6000 0.6000   161.97 0.2500
 -43.27   249.92 0.6000 0.6000   163.55 0.2500
 -41.52   250.68 0.6000 0.6000   165.06 0.2500
 -39.83   251.41 0.6000 0.6000   166.52 0.2500
 -38.17   252.10 0.6000 0.6000   167.90 0.2500
 -36.55   252.77 0.6000 0.6000   169.23 0.2500
 -34.96   253.40 0.6000 0.6000   170.50 0.2500
 -33.41   254.01 0.6000 0.6000   171.71 0.2500
 -31.88   254.58 0.6000 0.6000   172.87 0.2500
 -30.37   255.13 0.6000 0.6000   173.97 0.2500
 -28.89   255.66 0.6000 0.6000   175.01 0.2500
 -27.43   256.15 0.6000 0.6000   176.01 0.2500
 -25.99   256.62 0.6000 0.6000   176.94 0.2500
 -24.57   257.07 0.6000 0.6000   177.83 0.2500
 -23.16   257.48 0.6000 0.6000   178.67 0.2500
 -21.76   257.88 0.6000 0.6000   179.46 0.2500
 -20.38   258.25 0.6000 0.6000   180.19 0.2500
 -19.02   258.59 0.6000 0.6000   180.88 0.2500
 -17.66   258.91 0.6000 0.6000   181.52 0.2500
 -16.31   259.21 0.6000 0.6000   182.11 0.2500
 -14.98   259.48 0.6000 0.6000   182.66 0.2500
 -13.65   259.73 0.6000 0.6000   183.16 0.2500
 -12.33   259.95 0.6000 0.6000   183.61 0.2500
 -11.01   260.16 0.6000 0.6000   184.01 0.2500
  -9.70   260.34 0.6000 0.6000   184.37 0.2500
  -8.40   260.49 0.6000 0.6000   184.69 0.2500
  -7.10   260.63 0.6000 0.6000   184.96 0.2500
  -5.80   260.74 0.6000 0.6000   185.18 0.2500
  -4.51   260.83 0.6000 0.6000   185.36 0.2500
  -3.22   260.90 0.6000 0.6000   185.49 0.2500
  -1.93   260.94 0.6000 0.6000   185.58 0.2500
  -0.64   260.96 0.6000 0.6000   185.63 0.2500
   0.64   260.96 0.6000 0.6000   185.63 0.2500
   1.93   260.94 0.6000 0.6000   185.58 0.2500
   3.22   260.90 0.6000 0.6000   185.49 0.2500
   4.51   260.83 0.6000 0.6000   185.36 0.2500
   5.80   260.74 0.6000 0.6000   185.18 0.2500
   7.10   260.63 0.6000 0.6000   184.96 0.2500
   8.40   260.49 0.6000 0.6000   184.69 0.2500
   9.70   260.34 0.6000 0.6000   184.37 0.2500
  11.01   260.16 0.6000 0.6000   184.01 0.2500
  12.33   259.95 0.6000 0.6000   183.61 0.2500
  13.65   259.73 0.6000 0.6000   183.16 0.2500
  14.98   259.48 0.6000 0.6000   182.66 0.2500
  16.31   259.21 0.6000 0.6000   182.11 0.2500
  17.66   258.91 0.6000 0.6000   181.52 0.2500
  19.02   258.59 0.6000 0.6000   180.88 0.2500
  20.38   258.25 0.6000 0.6000   180.19 0.2500
  21.76   257.88 0.6000 0.6000   179.46 0.2500
  23.16   257.48 0.6000 0.6000   178.67 0.2500
  24.57   257.07 0.6000 0.6000   177.83 0.2500
  25.99   256.62 0.6000 0.6000   176.94 0.2500
  27.43   256.15 0.6000 0.6000   176.01 0.2500
  28.89   255.66 0.6000 0.6000   175.01 0.2500
  30.37   255.13 0.6000 0.6000   173.97 0.2500
  31.88   254.58 0.6000 0.6000   172.87 0.2500
  33.41   254.01 0.6000 0.6000   171.71 0.2500
  34.96   253.40 0.6000 0.6000   170.50 0.2500
  36.55   252.77 0.6000 0.6000   169.23 0.2500
  38.17   252.10 0.6000 0.6000   167.90 0.2500
  39.83   251.41 0.6000 0.6000   166.52 0.2500
  41.52   250.68 0.6000 0.6000   165.06 0.2500
  43.27   249.92 0.6000 0.6000   163.55 0.2500
  45.06   249.13 0.6000 0.6000   161.97 0.2500
  46.91   248.31 0.6000 0.6000   160.32 0.2500
  48.83   247.45 0.6000 0.6000   158.60 0.2500
  50.83   246.55 0.6000 0.6000   156.80 0.2500
  52.92   245.62 0.6000 0.6000   154.93 0.2500
  55.11   244.64 0.6000 0.6000   152.99 0.2500
  57.43   243.63 0.6000 0.6000   150.96 0.2500
  59.90   242.57 0.6000 0.6000   148.85 0.2500
  62.58   241.47 0.6000 0.6000   146.64 0.2500
  65.52   240.32 0.6000 0.6000   144.35 0.2500
  68.84   239.12 0.6000 0.6000   141.94 0.2500
  72.76   237.84 0.6000 0.6000   139.39 0.2500
  77.83   236.41 0.6000 0.6000   136.52 0.2500
  90.00   234.25 0.6000 0.6000   132.20 0.2500
