# Name of benchmark/experiment: FILLET Experiment 3 (instellation bifurcation)
# Case number: 109
# Branch: warming
# Instellation (S_earth): 1.45
# XCO2 (ppm): 280.0
# Obliquity (degrees): 23.5
# Mode: seasonal
#
# Columns of data (annually averaged for last orbit)
# Lat Tsurf Asurf ATOA OLR Fland
 -90.00   316.71 0.2250 0.2250   297.12 0.2500
 -77.83   321.57 0.2250 0.2250   306.83 0.2500
 -72.76   324.79 0.2250 0.2250   313.27 0.2500
 -68.84   327.66 0.2250 0.2250   319.01 0.2500
 -65.52   330.36 0.2250 0.2250   324.42 0.2500
 -62.58   332.94 0.2250 0.2250   329.58 0.2500
 -59.90   335.42 0.2250 0.2250   334.53 0.2500
 -57.43   337.79 0.2250 0.2250   339.28 0.2500
 -55.11   340.07 0.2250 0.2250   343.84 0.2500
 -52.92   342.26 0.2250 0.2250   348.22 0.2500
 -50.83   344.36 0.2250 0.2250   352.41 0.2500
 -48.83   346.37 0.2250 0.2250   356.44 0.2500
 -46.91   348.31 0.2250 0.2250   360.31 0.2500
 -45.06   350.16 0.2250 0.2250   364.02 0.2500
 -43.27   351.94 0.2250 0.2250   367.57 0.2500
 -41.52   353.64 0.2250 0.2250   370.98 0.2500
 -39.83   355.27 0.2250 0.2250   374.24 0.2500
 -38.17   356.83 0.2250 0.2250   377.37 0.2500
 -36.55   358.33 0.2250 0.2250   380.35 0.2500
 -34.96   359.75 0.2250 0.2250   383.21 0.2500
 -33.41   361.11 0.2250 0.2250   385.93 0.2500
 -31.88   362.41 0.2250 0.2250   388.53 0.2500
 -30.37   363.65 0.2250 0.2250   391.00 0.2500
 -28.89   364.82 0.2250 0.2250   393.34 0.2500
 -27.43   365.94 0.2250 0.2250   395.57 0.2500
 -25.99   366.99 0.2250 0.2250   397.68 0.2500
 -24.57   367.99 0.2250 0.2250   399.68 0.2500
 -23.16   368.93 0.2250 0.2250   401.56 0.2500
 -21.76   369.81 0.2250 0.2250   403.33 0.2500
 -20.38   370.64 0.2250 0.2250   404.98 0.2500
 -19.02   371.42 0.2250 0.2250   406.53 0.2500
 -17.66   372.13 0.2250 0.2250   407.97 0.2500
 -16.31   372.80 0.2250 0.2250   409.30 0.2500
 -14.98   373.41 0.2250 0.2250   410.53 0.2500
 -13.65   373.97 0.2250 0.2250   411.65 0.2500
 -12.33   374.48 0.2250 0.2250   412.66 0.2500
 -11.01   374.94 0.2250 0.2250   413.57 0.2500
  -9.70   375.34 0.2250 0.2250   414.38 0.2500
  -8.40   375.69 0.2250 0.2250   415.09 0.2500
  -7.10   376.00 0.2250 0.2250   415.69 0.2500
  -5.80   376.25 0.2250 0.2250   416.20 0.2500
  -4.51   376.45 0.2250 0.2250   416.60 0.2500
  -3.22   376.60 0.2250 0.2250   416.90 0.2500
  -1.93   376.70 0.2250 0.2250   417.10 0.2500
  -0.64   376.75 0.2250 0.2250   417.20 0.2500
   0.64   376.75 0.2250 0.2250   417.20 0.2500
   1.93   376.70 0.2250 0.2250   417.10 0.2500
   3.22   376.60 0.2250 0.2250   416.90 0.2500
   4.51   376.45 0.2250 0.2250   416.60 0.2500
   5.80   376.25 0.2250 0.2250   416.20 0.2500
   7.10   376.00 0.2250 0.2250   415.69 0.2500
   8.40   375.69 0.2250 0.2250   415.09 0.2500
   9.70   375.34 0.2250 0.2250   414.38 0.2500
  11.01   374.94 0.2250 0.2250   413.57 0.2500
  12.33   374.48 0.2250 0.2250   412.66 0.2500
  13.65   373.97 0.2250 0.2250   411.65 0.2500
  14.98   373.41 0.2250 0.2250   410.53 0.2500
  16.31   372.80 0.2250 0.2250   409.30 0.2500
  17.66   372.13 0.2250 0.2250   407.97 0.2500
  19.02   371.42 0.2250 0.2250   406.53 0.2500
  20.38   370.64 0.2250 0.2250   404.98 0.2500
  21.76   369.81 0.2250 0.2250   403.33 0.2500
  23.16   368.93 0.2250 0.2250   401.56 0.2500
  24.57   367.99 0.2250 0.2250   399.68 0.2500
  25.99   366.99 0.2250 0.2250   397.68 0.2500
  27.43   365.94 0.2250 0.2250   395.57 0.2500
  28.89   364.82 0.2250 0.2250   393.34 0.2500
  30.37   363.65 0.2250 0.2250   391.00 0.2500
  31.88   362.41 0.2250 0.2250   388.53 0.2500
  33.41   361.11 0.2250 0.2250   385.93 0.2500
  34.96   359.75 0.2250 0.2250   383.21 0.2500
  36.55   358.33 0.2250 0.2250   380.35 0.2500
  38.17   356.83 0.2250 0.2250   377.37 0.2500
  39.83   355.27 0.2250 0.2250   374.24 0.2500
  41.52   353.64 0.2250 0.2250   370.98 0.2500
  43.27   351.94 0.2250 0.2250   367.57 0.2500
  45.06   350.16 0.2250 0.2250   364.02 0.2500
  46.91   348.31 0.2250 0.2250   360.31 0.2500
  48.83   346.37 0.2250 0.2250   356.44 0.2500
  50.83   344.36 0.2250 0.2250   352.41 0.2500
  52.92   342.26 0.2250 0.2250   348.22 0.2500
  55.11   340.07 0.2250 0.2250   343.84 0.2500
  57.43   337.79 0.2250 0.2250   339.28 0.2500
  59.90   335.42 0.2250 0.2250   334.53 0.2500
  62.58   332.94 0.2250 0.2250   329.58 0.2500
  65.52   330.36 0.2250 0.2250   324.42 0.2500
  68.84   327.66 0.2250 0.2250   319.01 0.2500
  72.76   324.79 0.2250 0.2250   313.27 0.2500
  77.83   321.57 0.2250 0.2250   306.83 0.2500
  90.00   316.71 0.2250 0.2250   297.12 0.2500
