# Name of benchmark/experiment: FILLET Experiment 3 (instellation bifurcation)
# Case number: 32
# Branch: cooling
# Instellation (S_earth): 1.1
# XCO2 (ppm): 280.0
# Obliquity (degrees): 23.5
# Mode: seasonal
#
# Columns of data (annually averaged for last orbit)
# Lat Tsurf Asurf ATOA OLR Fland
 -90.00   280.85 0.2250 0.2250   225.40 0.2500
 -77.83   284.54 0.2250 0.2250   232.77 0.2500
 -72.76   286.98 0.2250 0.2250   237.66 0.2500
 -68.84   289.16 0.2250 0.2250   242.01 0.2500
 -65.52   291.21 0.2250 0.2250   246.11 0.2500
 -62.58   293.17 0.2250 0.2250   250.03 0.2500
 -59.90   295.04 0.2250 0.2250   253.79 0.2500
 -57.43   296.84 0.2250 0.2250   257.39 0.2500
 -55.11   298.57 0.2250 0.2250   260.85 0.2500
 -52.92   300.23 0.2250 0.2250   264.16 0.2500
 -50.83   301.83 0.2250 0.2250   267.35 0.2500
 -48.83   303.35 0.2250 0.2250   270.41 0.2500
 -46.91   304.82 0.2250 0.2250   273.34 0.2500
 -45.06   306.23 0.2250 0.2250   276.15 0.2500
 -43.27   307.58 0.2250 0.2250   278.85 0.2500
 -41.52   308.87 0.2250 0.2250   281.44 0.2500
 -39.83   310.11 0.2250 0.2250   283.91 0.2500
 -38.17   311.29 0.2250 0.2250   286.28 0.2500
 -36.55   312.42 0.2250 0.2250   288.55 0.2500
 -34.96   313.50 0.2250 0.2250   290.71 0.2500
 -33.41   314.54 0.2250 0.2250   292.78 0.2500
 -31.88   315.52 0.2250 0.2250   294.74 0.2500
 -30.37   316.46 0.2250 0.2250   296.62 0.2500
 -28.89   317.35 0.2250 0.2250   298.40 0.2500
 -27.43   318.20 0.2250 0.2250   300.09 0.2500
 -25.99   319.00 0.2250 0.2250   301.69 0.2500
 -24.57   319.75 0.2250 0.2250   303.21 0.2500
 -23.16   320.47 0.2250 0.2250   304.63 0.2500
 -21.76   321.14 0.2250 0.2250   305.97 0.2500
 -20.38   321.77 0.2250 0.2250   307.23 0.2500
 -19.02   322.35 0.2250 0.2250   308.40 0.2500
 -17.66   322.90 0.2250 0.2250   309.50 0.2500
 -16.31   323.40 0.2250 0.2250   310.51 0.2500
 -14.98   323.87 0.2250 0.2250   311.43 0.2500
 -13.65   324.29 0.2250 0.2250   312.28 0.2500
 -12.33   324.68 0.2250 0.2250   313.05 0.2500
 -11.01   325.02 0.2250 0.2250   313.75 0.2500
  -9.70   325.33 0.2250 0.2250   314.36 0.2500
  -8.40   325.60 0.2250 0.2250   314.90 0.2500
  -7.10   325.83 0.2250 0.2250   315.35 0.2500
  -5.80   326.02 0.2250 0.2250   315.74 0.2500
  -4.51   326.17 0.2250 0.2250   316.04 0.2500
  -3.22   326.28 0.2250 0.2250   316.27 0.2500
  -1.93   326.36 0.2250 0.2250   316.42 0.2500
  -0.64   326.40 0.2250 0.2250   316.50 0.2500
   0.64   326.40 0.2250 0.2250   316.50 0.2500
   1.93   326.36 0.2250 0.2250   316.42 0.2500
   3.22   326.28 0.2250 0.2250   316.27 0.2500
   4.51   326.17 0.2250 0.2250   316.04 0.2500
   5.80   326.02 0.2250 0.2250   315.74 0.2500
   7.10   325.83 0.2250 0.2250   315.35 0.2500
   8.40   325.60 0.2250 0.2250   314.90 0.2500
   9.70   325.33 0.2250 0.2250   314.36 0.2500
  11.01   325.02 0.2250 0.2250   313.75 0.2500
  12.33   324.68 0.2250 0.2250   313.05 0.2500
  13.65   324.29 0.2250 0.2250   312.28 0.2500
  14.98   323.87 0.2250 0.2250   311.44 0.2500
  16.31   323.40 0.2250 0.2250   310.51 0.2500
  17.66   322.90 0.2250 0.2250   309.50 0.2500
  19.02   322.35 0.2250 0.2250   308.40 0.2500
  20.38   321.77 0.2250 0.2250   307.23 0.2500
  21.76   321.14 0.2250 0.2250   305.97 0.2500
  23.16   320.47 0.2250 0.2250   304.63 0.2500
  24.57   319.75 0.2250 0.2250   303.21 0.2500
  25.99   319.00 0.2250 0.2250   301.69 0.2500
  27.43   318.20 0.2250 0.2250   300.09 0.2500
  28.89   317.35 0.2250 0.2250   298.40 0.2500
  30.37   316.46 0.2250 0.2250   296.62 0.2500
  31.88   315.52 0.2250 0.2250   294.74 0.2500
  33.41   314.54 0.2250 0.2250   292.78 0.2500
  34.96   313.50 0.2250 0.2250   290.71 0.2500
  36.55   312.42 0.2250 0.2250   288.55 0.2500
  38.17   311.29 0.2250 0.2250   286.28 0.2500
  39.83   310.11 0.2250 0.2250   283.91 0.2500
  41.52   308.87 0.2250 0.2250   281.44 0.2500
  43.27   307.58 0.2250 0.2250   278.85 0.2500
  45.06   306.23 0.2250 0.2250   276.15 0.2500
  46.91   304.82 0.2250 0.2250   273.34 0.2500
  48.83   303.35 0.2250 0.2250   270.41 0.2500
  50.83   301.83 0.2250 0.2250   267.35 0.2500
  52.92   300.23 0.2250 0.2250   264.16 0.2500
  55.11   298.57 0.2250 0.2250   260.85 0.2500
  57.43   296.84 0.2250 0.2250   257.39 0.2500
  59.90   295.04 0.2250 0.2250   253.79 0.2500
  62.58   293.17 0.2250 0.2250   250.03 0.2500
  65.52   291.21 0.2250 0.2250   246.11 0.2500
  68.84   289.16 0.2250 0.2250   242.01 0.2500
  72.76   286.98 0.2250 0.2250   237.66 0.2500
  77.83   284.54 0.2250 0.2250   232.77 0.2500
  90.00   280.85 0.2250 0.2250   225.40 0.2500
