# Name of benchmark/experiment: FILLET Experiment 3 (instellation bifurcation)
# Case number: 34
# Branch: cooling
# Instellation (S_earth): 1.075
# XCO2 (ppm): 280.0
# Obliquity (degrees): 23.5
# Mode: seasonal
#
# Columns of data (annually averaged for last orbit)
# Lat Tsurf Asurf ATOA OLR Fland
 -90.00   278.29 0.2250 0.2250   220.28 0.2500
 -77.83   281.89 0.2250 0.2250   227.48 0.2500
 -72.76   284.28 0.2250 0.2250   232.26 0.2500
 -68.84   286.41 0.2250 0.2250   236.51 0.2500
 -65.52   288.41 0.2250 0.2250   240.52 0.2500
 -62.58   290.32 0.2250 0.2250   244.35 0.2500
 -59.90   292.16 0.2250 0.2250   248.02 0.2500
 -57.43   293.92 0.2250 0.2250   251.54 0.2500
 -55.11   295.61 0.2250 0.2250   254.92 0.2500
 -52.92   297.23 0.2250 0.2250   258.16 0.2500
 -50.83   298.79 0.2250 0.2250   261.27 0.2500
 -48.83   300.28 0.2250 0.2250   264.26 0.2500
 -46.91   301.71 0.2250 0.2250   267.13 0.2500
 -45.06   303.09 0.2250 0.2250   269.88 0.2500
 -43.27   304.41 0.2250 0.2250   272.51 0.2500
 -41.52   305.67 0.2250 0.2250   275.04 0.2500
 -39.83   306.88 0.2250 0.2250   277.46 0.2500
 -38.17   308.04 0.2250 0.2250   279.77 0.2500
 -36.55   309.14 0.2250 0.2250   281.99 0.2500
 -34.96   310.20 0.2250 0.2250   284.10 0.2500
 -33.41   311.21 0.2250 0.2250   286.12 0.2500
 -31.88   312.17 0.2250 0.2250   288.05 0.2500
 -30.37   313.09 0.2250 0.2250   289.88 0.2500
 -28.89   313.96 0.2250 0.2250   291.62 0.2500
 -27.43   314.79 0.2250 0.2250   293.27 0.2500
 -25.99   315.57 0.2250 0.2250   294.84 0.2500
 -24.57   316.31 0.2250 0.2250   296.32 0.2500
 -23.16   317.00 0.2250 0.2250   297.71 0.2500
 -21.76   317.66 0.2250 0.2250   299.02 0.2500
 -20.38   318.27 0.2250 0.2250   300.25 0.2500
 -19.02   318.85 0.2250 0.2250   301.40 0.2500
 -17.66   319.38 0.2250 0.2250   302.46 0.2500
 -16.31   319.87 0.2250 0.2250   303.45 0.2500
 -14.98   320.33 0.2250 0.2250   304.36 0.2500
 -13.65   320.74 0.2250 0.2250   305.19 0.2500
 -12.33   321.12 0.2250 0.2250   305.94 0.2500
 -11.01   321.46 0.2250 0.2250   306.62 0.2500
  -9.70   321.76 0.2250 0.2250   307.22 0.2500
  -8.40   322.02 0.2250 0.2250   307.74 0.2500
  -7.10   322.24 0.2250 0.2250   308.19 0.2500
  -5.80   322.43 0.2250 0.2250   308.56 0.2500
  -4.51   322.58 0.2250 0.2250   308.86 0.2500
  -3.22   322.69 0.2250 0.2250   309.08 0.2500
  -1.93   322.76 0.2250 0.2250   309.23 0.2500
  -0.64   322.80 0.2250 0.2250   309.30 0.2500
   0.64   322.80 0.2250 0.2250   309.30 0.2500
   1.93   322.76 0.2250 0.2250   309.23 0.2500
   3.22   322.69 0.2250 0.2250   309.08 0.2500
   4.51   322.58 0.2250 0.2250   308.86 0.2500
   5.80   322.43 0.2250 0.2250   308.56 0.2500
   7.10   322.24 0.2250 0.2250   308.19 0.2500
   8.40   322.02 0.2250 0.2250   307.74 0.2500
   9.70   321.76 0.2250 0.2250   307.22 0.2500
  11.01   321.46 0.2250 0.2250   306.62 0.2500
  12.33   321.12 0.2250 0.2250   305.94 0.2500
  13.65   320.74 0.2250 0.2250   305.19 0.2500
  14.98   320.33 0.2250 0.2250   304.36 0.2500
  16.31   319.87 0.2250 0.2250   303.45 0.2500
  17.66   319.38 0.2250 0.2250   302.46 0.2500
  19.02   318.85 0.2250 0.2250   301.40 0.2500
  20.38   318.27 0.2250 0.2250   300.25 0.2500
  21.76   317.66 0.2250 0.2250   299.02 0.2500
  23.16   317.00 0.2250 0.2250   297.71 0.2500
  24.57   316.31 0.2250 0.2250   296.32 0.2500
  25.99   315.57 0.2250 0.2250   294.84 0.2500
  27.43   314.79 0.2250 0.2250   293.27 0.2500
  28.89   313.96 0.2250 0.2250   291.62 0.2500
  30.37   313.09 0.2250 0.2250   289.88 0.2500
  31.88   312.17 0.2250 0.2250   288.05 0.2500
  33.41   311.21 0.2250 0.2250   286.12 0.2500
  34.96   310.20 0.2250 0.2250   284.10 0.2500
  36.55   309.14 0.2250 0.2250   281.99 0.2500
  38.17   308.04 0.2250 0.2250   279.77 0.2500
  39.83   306.88 0.2250 0.2250   277.46 0.2500
  41.52   305.67 0.2250 0.2250   275.04 0.2500
  43.27   304.41 0.2250 0.2250   272.51 0.2500
  45.06   303.09 0.2250 0.2250   269.88 0.2500
  46.91   301.71 0.2250 0.2250   267.13 0.2500
  48.83   300.28 0.2250 0.2250   264.26 0.2500
  50.83   298.79 0.2250 0.2250   261.27 0.2500
  52.92   297.23 0.2250 0.2250   258.16 0.2500
  55.11   295.61 0.2250 0.2250   254.92 0.2500
  57.43   293.92 0.2250 0.2250   251.54 0.2500
  59.90   292.16 0.2250 0.2250   248.02 0.2500
  62.58   290.32 0.2250 0.2250   244.35 0.2500
  65.52   288.41 0.2250 0.2250   240.52 0.2500
  68.84   286.41 0.2250 0.2250   236.51 0.2500
  72.76   284.28 0.2250 0.2250   232.26 0.2500
  77.83   281.89 0.2250 0.2250   227.48 0.2500
  90.00   278.29 0.2250 0.2250   220.28 0.2500
