# Name of benchmark/experiment: FILLET Experiment 1a (warm start, au)
# Case number: 178
# Instellation (S_earth): 1.07944
# XCO2 (ppm): 280.0
# Obliquity (degrees): 90.0
# Mode: seasonal
#
# Columns of data (annually averaged for last orbit)
# Lat Tsurf Asurf ATOA OLR Fland
 -90.00   328.45 0.2250 0.2250   320.61 0.2500
 -77.83   326.94 0.2250 0.2250   317.58 0.2500
 -72.76   325.80 0.2250 0.2250   315.30 0.2500
 -68.84   324.73 0.2250 0.2250   313.17 0.2500
 -65.52   323.70 0.2250 0.2250   311.10 0.2500
 -62.58   322.70 0.2250 0.2250   309.10 0.2500
 -59.90   321.72 0.2250 0.2250   307.15 0.2500
 -57.43   320.78 0.2250 0.2250   305.26 0.2500
 -55.11   319.86 0.2250 0.2250   303.42 0.2500
 -52.92   318.97 0.2250 0.2250   301.64 0.2500
 -50.83   318.09 0.2250 0.2250   299.89 0.2500
 -48.83   317.24 0.2250 0.2250   298.17 0.2500
 -46.91   316.40 0.2250 0.2250   296.49 0.2500
 -45.06   315.57 0.2250 0.2250   294.85 0.2500
 -43.27   314.76 0.2250 0.2250   293.23 0.2500
 -41.52   313.97 0.2250 0.2250   291.65 0.2500
 -39.83   313.20 0.2250 0.2250   290.09 0.2500
 -38.17   312.44 0.2250 0.2250   288.57 0.2500
 -36.55   311.69 0.2250 0.2250   287.09 0.2500
 -34.96   310.97 0.2250 0.2250   285.64 0.2500
 -33.41   310.27 0.2250 0.2250   284.23 0.2500
 -31.88   309.58 0.2250 0.2250   282.87 0.2500
 -30.37   308.92 0.2250 0.2250   281.54 0.2500
 -28.89   308.28 0.2250 0.2250   280.27 0.2500
 -27.43   307.67 0.2250 0.2250   279.04 0.2500
 -25.99   307.08 0.2250 0.2250   277.87 0.2500
 -24.57   306.52 0.2250 0.2250   276.74 0.2500
 -23.16   305.98 0.2250 0.2250   275.67 0.2500
 -21.76   305.47 0.2250 0.2250   274.65 0.2500
 -20.38   304.99 0.2250 0.2250   273.67 0.2500
 -19.02   304.53 0.2250 0.2250   272.75 0.2500
 -17.66   304.09 0.2250 0.2250   271.88 0.2500
 -16.31   303.68 0.2250 0.2250   271.06 0.2500
 -14.98   303.30 0.2250 0.2250   270.30 0.2500
 -13.65   302.94 0.2250 0.2250   269.59 0.2500
 -12.33   302.61 0.2250 0.2250   268.93 0.2500
 -11.01   302.31 0.2250 0.2250   268.33 0.2500
  -9.70   302.04 0.2250 0.2250   267.78 0.2500
  -8.40   301.80 0.2250 0.2250   267.30 0.2500
  -7.10   301.59 0.2250 0.2250   266.87 0.2500
  -5.80   301.40 0.2250 0.2250   266.51 0.2500
  -4.51   301.26 0.2250 0.2250   266.21 0.2500
  -3.22   301.14 0.2250 0.2250   265.99 0.2500
  -1.93   301.07 0.2250 0.2250   265.83 0.2500
  -0.64   301.03 0.2250 0.2250   265.75 0.2500
   0.64   301.03 0.2250 0.2250   265.75 0.2500
   1.93   301.07 0.2250 0.2250   265.83 0.2500
   3.22   301.14 0.2250 0.2250   265.99 0.2500
   4.51   301.26 0.2250 0.2250   266.21 0.2500
   5.80   301.40 0.2250 0.2250   266.51 0.2500
   7.10   301.59 0.2250 0.2250   266.87 0.2500
   8.40   301.80 0.2250 0.2250   267.30 0.2500
   9.70   302.04 0.2250 0.2250   267.78 0.2500
  11.01   302.31 0.2250 0.2250   268.33 0.2500
  12.33   302.61 0.2250 0.2250   268.93 0.2500
  13.65   302.94 0.2250 0.2250   269.59 0.2500
  14.98   303.30 0.2250 0.2250   270.30 0.2500
  16.31   303.68 0.2250 0.2250   271.06 0.2500
  17.66   304.09 0.2250 0.2250   271.88 0.2500
  19.02   304.53 0.2250 0.2250   272.75 0.2500
  20.38   304.99 0.2250 0.2250   273.67 0.2500
  21.76   305.47 0.2250 0.2250   274.65 0.2500
  23.16   305.98 0.2250 0.2250   275.67 0.2500
  24.57   306.52 0.2250 0.2250   276.74 0.2500
  25.99   307.08 0.2250 0.2250   277.87 0.2500
  27.43   307.67 0.2250 0.2250   279.04 0.2500
  28.89   308.28 0.2250 0.2250   280.27 0.2500
  30.37   308.92 0.2250 0.2250   281.54 0.2500
  31.88   309.58 0.2250 0.2250   282.87 0.2500
  33.41   310.27 0.2250 0.2250   284.23 0.2500
  34.96   310.97 0.2250 0.2250   285.64 0.2500
  36.55   311.69 0.2250 0.2250   287.09 0.2500
  38.17   312.44 0.2250 0.2250   288.57 0.2500
  39.83   313.20 0.2250 0.2250   290.09 0.2500
  41.52   313.97 0.2250 0.2250   291.65 0.2500
  43.27   314.76 0.2250 0.2250   293.23 0.2500
  45.06   315.57 0.2250 0.2250   294.85 0.2500
  46.91   316.40 0.2250 0.2250   296.49 0.2500
  48.83   317.24 0.2250 0.2250   298.17 0.2500
  50.83   318.09 0.2250 0.2250   299.89 0.2500
  52.92   318.97 0.2250 0.2250   301.64 0.2500
  55.11   319.86 0.2250 0.2250   303.42 0.2500
  57.43   320.78 0.2250 0.2250   305.26 0.2500
  59.90   321.72 0.2250 0.2250   307.15 0.2500
  62.58   322.70 0.2250 0.2250   309.10 0.2500
  65.52   323.70 0.2250 0.2250   311.10 0.2500
  68.84   324.73 0.2250 0.2250   313.17 0.2500
  72.76   325.80 0.2250 0.2250   315.30 0.2500
  77.83   326.94 0.2250 0.2250   317.58 0.2500
  90.00   328.45 0.2250 0.2250   320.61 0.2500
