# Name of benchmark/experiment: FILLET Experiment 1a (warm start, au)
# Case number: 15
# Instellation (S_earth): 0.885813
# XCO2 (ppm): 280.0
# Obliquity (degrees): 0.0
# Mode: seasonal
#
# Columns of data (annually averaged for last orbit)
# Lat Tsurf Asurf ATOA OLR Fland
 -90.00   232.01 0.6000 0.6000   127.72 0.2500
 -77.83   237.78 0.6000 0.6000   139.27 0.2500
 -72.76   241.36 0.6000 0.6000   146.42 0.2500
 -68.84   244.46 0.6000 0.6000   152.62 0.2500
 -65.52   247.35 0.6000 0.6000   158.41 0.2500
 -62.58   250.13 0.6000 0.6000   163.96 0.2500
 -59.90   252.83 0.6000 0.6000   169.37 0.2500
 -57.43   255.49 0.6000 0.6000   174.69 0.2500
 -55.11   258.13 0.6000 0.6000   179.96 0.2500
 -52.92   260.75 0.6000 0.6000   185.20 0.2500
 -50.83   263.37 0.2250 0.2250   190.45 0.2500
 -48.83   265.78 0.2250 0.2250   195.26 0.2500
 -46.91   268.01 0.2250 0.2250   199.72 0.2500
 -45.06   270.08 0.2250 0.2250   203.85 0.2500
 -43.27   272.00 0.2250 0.2250   207.71 0.2500
 -41.52   273.81 0.2250 0.2250   211.31 0.2500
 -39.83   275.50 0.2250 0.2250   214.69 0.2500
 -38.17   277.08 0.2250 0.2250   217.86 0.2500
 -36.55   278.57 0.2250 0.2250   220.84 0.2500
 -34.96   279.97 0.2250 0.2250   223.65 0.2500
 -33.41   281.29 0.2250 0.2250   226.29 0.2500
 -31.88   282.54 0.2250 0.2250   228.77 0.2500
 -30.37   283.71 0.2250 0.2250   231.11 0.2500
 -28.89   284.81 0.2250 0.2250   233.31 0.2500
 -27.43   285.84 0.2250 0.2250   235.38 0.2500
 -25.99   286.81 0.2250 0.2250   237.32 0.2500
 -24.57   287.72 0.2250 0.2250   239.15 0.2500
 -23.16   288.58 0.2250 0.2250   240.85 0.2500
 -21.76   289.37 0.2250 0.2250   242.44 0.2500
 -20.38   290.11 0.2250 0.2250   243.93 0.2500
 -19.02   290.80 0.2250 0.2250   245.31 0.2500
 -17.66   291.44 0.2250 0.2250   246.58 0.2500
 -16.31   292.03 0.2250 0.2250   247.76 0.2500
 -14.98   292.57 0.2250 0.2250   248.84 0.2500
 -13.65   293.06 0.2250 0.2250   249.82 0.2500
 -12.33   293.50 0.2250 0.2250   250.70 0.2500
 -11.01   293.90 0.2250 0.2250   251.50 0.2500
  -9.70   294.25 0.2250 0.2250   252.20 0.2500
  -8.40   294.56 0.2250 0.2250   252.81 0.2500
  -7.10   294.82 0.2250 0.2250   253.34 0.2500
  -5.80   295.04 0.2250 0.2250   253.77 0.2500
  -4.51   295.21 0.2250 0.2250   254.12 0.2500
  -3.22   295.34 0.2250 0.2250   254.38 0.2500
  -1.93   295.43 0.2250 0.2250   254.55 0.2500
  -0.64   295.47 0.2250 0.2250   254.64 0.2500
   0.64   295.47 0.2250 0.2250   254.64 0.2500
   1.93   295.43 0.2250 0.2250   254.55 0.2500
   3.22   295.34 0.2250 0.2250   254.38 0.2500
   4.51   295.21 0.2250 0.2250   254.12 0.2500
   5.80   295.04 0.2250 0.2250   253.77 0.2500
   7.10   294.82 0.2250 0.2250   253.34 0.2500
   8.40   294.56 0.2250 0.2250   252.81 0.2500
   9.70   294.25 0.2250 0.2250   252.20 0.2500
  11.01   293.90 0.2250 0.2250   251.50 0.2500
  12.33   293.50 0.2250 0.2250   250.70 0.2500
  13.65   293.06 0.2250 0.2250   249.82 0.2500
  14.98   292.57 0.2250 0.2250   248.84 0.2500
  16.31   292.03 0.2250 0.2250   247.76 0.2500
  17.66   291.44 0.2250 0.2250   246.58 0.2500
  19.02   290.80 0.2250 0.2250   245.31 0.2500
  20.38   290.11 0.2250 0.2250   243.93 0.2500
  21.76   289.37 0.2250 0.2250   242.44 0.2500
  23.16   288.58 0.2250 0.2250   240.85 0.2500
  24.57   287.72 0.2250 0.2250   239.15 0.2500
  25.99   286.81 0.2250 0.2250   237.32 0.2500
  27.43   285.84 0.2250 0.2250   235.38 0.2500
  28.89   284.81 0.2250 0.2250   233.31 0.2500
  30.37   283.71 0.2250 0.2250   231.11 0.2500
  31.88   282.54 0.2250 0.2250   228.77 0.2500
  33.41   281.29 0.2250 0.2250   226.29 0.2500
  34.96   279.97 0.2250 0.2250   223.65 0.2500
  36.55   278.57 0.2250 0.2250   220.84 0.2500
  38.17   277.08 0.2250 0.2250   217.86 0.2500
  39.83   275.50 0.2250 0.2250   214.69 0.2500
  41.52   273.81 0.2250 0.2250   211.31 0.2500
  43.27   272.00 0.2250 0.2250   207.71 0.2500
  45.06   270.08 0.2250 0.2250   203.85 0.2500
  46.91   268.01 0.2250 0.2250   199.72 0.2500
  48.83   265.78 0.2250 0.2250   195.26 0.2500
  50.83   263.37 0.2250 0.2250   190.45 0.2500
  52.92   260.75 0.6000 0.6000   185.20 0.2500
  55.11   258.13 0.6000 0.6000   179.96 0.2500
  57.43   255.49 0.6000 0.6000   174.69 0.2500
  59.90   252.83 0.6000 0.6000   169.37 0.2500
  62.58   250.13 0.6000 0.6000   163.96 0.2500
  65.52   247.35 0.6000 0.6000   158.41 0.2500
  68.84   244.46 0.6000 0.6000   152.62 0.2500
  72.76   241.36 0.6000 0.6000   146.42 0.2500
  77.83   237.78 0.6000 0.6000   139.27 0.2500
  90.00   232.01 0.6000 0.6000   127.72 0.2500
