# Name of benchmark/experiment: FILLET Experiment 1a (warm start, au)
# Case number: 78
# Instellation (S_earth): 1.234568
# XCO2 (ppm): 280.0
# Obliquity (degrees): 40.0
# Mode: seasonal
#
# Columns of data (annually averaged for last orbit)
# Lat Tsurf Asurf ATOA OLR Fland
 -90.00   315.13 0.2250 0.2250   293.96 0.2500
 -77.83   316.65 0.2250 0.2250   297.00 0.2500
 -72.76   317.59 0.2250 0.2250   298.88 0.2500
 -68.84   318.44 0.2250 0.2250   300.57 0.2500
 -65.52   319.25 0.2250 0.2250   302.21 0.2500
 -62.58   320.05 0.2250 0.2250   303.81 0.2500
 -59.90   320.84 0.2250 0.2250   305.39 0.2500
 -57.43   321.63 0.2250 0.2250   306.96 0.2500
 -55.11   322.41 0.2250 0.2250   308.52 0.2500
 -52.92   323.19 0.2250 0.2250   310.08 0.2500
 -50.83   323.97 0.2250 0.2250   311.64 0.2500
 -48.83   324.74 0.2250 0.2250   313.19 0.2500
 -46.91   325.51 0.2250 0.2250   314.72 0.2500
 -45.06   326.27 0.2250 0.2250   316.24 0.2500
 -43.27   327.02 0.2250 0.2250   317.73 0.2500
 -41.52   327.75 0.2250 0.2250   319.20 0.2500
 -39.83   328.47 0.2250 0.2250   320.63 0.2500
 -38.17   329.16 0.2250 0.2250   322.03 0.2500
 -36.55   329.84 0.2250 0.2250   323.39 0.2500
 -34.96   330.50 0.2250 0.2250   324.70 0.2500
 -33.41   331.14 0.2250 0.2250   325.98 0.2500
 -31.88   331.75 0.2250 0.2250   327.20 0.2500
 -30.37   332.34 0.2250 0.2250   328.39 0.2500
 -28.89   332.91 0.2250 0.2250   329.52 0.2500
 -27.43   333.45 0.2250 0.2250   330.61 0.2500
 -25.99   333.97 0.2250 0.2250   331.65 0.2500
 -24.57   334.47 0.2250 0.2250   332.63 0.2500
 -23.16   334.94 0.2250 0.2250   333.57 0.2500
 -21.76   335.38 0.2250 0.2250   334.46 0.2500
 -20.38   335.80 0.2250 0.2250   335.30 0.2500
 -19.02   336.19 0.2250 0.2250   336.08 0.2500
 -17.66   336.56 0.2250 0.2250   336.81 0.2500
 -16.31   336.90 0.2250 0.2250   337.49 0.2500
 -14.98   337.21 0.2250 0.2250   338.12 0.2500
 -13.65   337.50 0.2250 0.2250   338.70 0.2500
 -12.33   337.76 0.2250 0.2250   339.23 0.2500
 -11.01   338.00 0.2250 0.2250   339.70 0.2500
  -9.70   338.21 0.2250 0.2250   340.12 0.2500
  -8.40   338.39 0.2250 0.2250   340.49 0.2500
  -7.10   338.55 0.2250 0.2250   340.80 0.2500
  -5.80   338.68 0.2250 0.2250   341.06 0.2500
  -4.51   338.79 0.2250 0.2250   341.27 0.2500
  -3.22   338.87 0.2250 0.2250   341.43 0.2500
  -1.93   338.92 0.2250 0.2250   341.54 0.2500
  -0.64   338.94 0.2250 0.2250   341.59 0.2500
   0.64   338.94 0.2250 0.2250   341.59 0.2500
   1.93   338.92 0.2250 0.2250   341.54 0.2500
   3.22   338.87 0.2250 0.2250   341.43 0.2500
   4.51   338.79 0.2250 0.2250   341.27 0.2500
   5.80   338.68 0.2250 0.2250   341.06 0.2500
   7.10   338.55 0.2250 0.2250   340.80 0.2500
   8.40   338.39 0.2250 0.2250   340.49 0.2500
   9.70   338.21 0.2250 0.2250   340.12 0.2500
  11.01   338.00 0.2250 0.2250   339.70 0.2500
  12.33   337.76 0.2250 0.2250   339.23 0.2500
  13.65   337.50 0.2250 0.2250   338.70 0.2500
  14.98   337.21 0.2250 0.2250   338.12 0.2500
  16.31   336.90 0.2250 0.2250   337.49 0.2500
  17.66   336.56 0.2250 0.2250   336.81 0.2500
  19.02   336.19 0.2250 0.2250   336.08 0.2500
  20.38   335.80 0.2250 0.2250   335.30 0.2500
  21.76   335.38 0.2250 0.2250   334.46 0.2500
  23.16   334.94 0.2250 0.2250   333.57 0.2500
  24.57   334.47 0.2250 0.2250   332.63 0.2500
  25.99   333.97 0.2250 0.2250   331.65 0.2500
  27.43   333.45 0.2250 0.2250   330.61 0.2500
  28.89   332.91 0.2250 0.2250   329.52 0.2500
  30.37   332.34 0.2250 0.2250   328.39 0.2500
  31.88   331.75 0.2250 0.2250   327.20 0.2500
  33.41   331.14 0.2250 0.2250   325.98 0.2500
  34.96   330.50 0.2250 0.2250   324.70 0.2500
  36.55   329.84 0.2250 0.2250   323.39 0.2500
  38.17   329.16 0.2250 0.2250   322.03 0.2500
  39.83   328.47 0.2250 0.2250   320.63 0.2500
  41.52   327.75 0.2250 0.2250   319.20 0.2500
  43.27   327.02 0.2250 0.2250   317.73 0.2500
  45.06   326.27 0.2250 0.2250   316.24 0.2500
  46.91   325.51 0.2250 0.2250   314.72 0.2500
  48.83   324.74 0.2250 0.2250   313.19 0.2500
  50.83   323.97 0.2250 0.2250   311.64 0.2500
  52.92   323.19 0.2250 0.2250   310.08 0.2500
  55.11   322.41 0.2250 0.2250   308.52 0.2500
  57.43   321.63 0.2250 0.2250   306.96 0.2500
  59.90   320.84 0.2250 0.2250   305.39 0.2500
  62.58   320.05 0.2250 0.2250   303.81 0.2500
  65.52   319.25 0.2250 0.2250   302.21 0.2500
  68.84   318.44 0.2250 0.2250   300.57 0.2500
  72.76   317.59 0.2250 0.2250   298.88 0.2500
  77.83   316.65 0.2250 0.2250   297.00 0.2500
  90.00   315.13 0.2250 0.2250   293.96 0.2500
