# Name of benchmark/experiment: FILLET Experiment 1a (warm start, au)
# Case number: 30
# Instellation (S_earth): 0.975461
# XCO2 (ppm): 280.0
# Obliquity (degrees): 10.0
# Mode: seasonal
#
# Columns of data (annually averaged for last orbit)
# Lat Tsurf Asurf ATOA OLR Fland
 -90.00   251.43 0.6000 0.6000   166.55 0.2500
 -77.83   257.66 0.6000 0.6000   179.01 0.2500
 -72.76   261.85 0.6000 0.6000   187.41 0.2500
 -68.84   265.64 0.2250 0.2250   194.97 0.2500
 -65.52   268.85 0.2250 0.2250   201.40 0.2500
 -62.58   271.70 0.2250 0.2250   207.10 0.2500
 -59.90   274.29 0.2250 0.2250   212.29 0.2500
 -57.43   276.68 0.2250 0.2250   217.07 0.2500
 -55.11   278.91 0.2250 0.2250   221.51 0.2500
 -52.92   280.99 0.2250 0.2250   225.68 0.2500
 -50.83   282.95 0.2250 0.2250   229.59 0.2500
 -48.83   284.79 0.2250 0.2250   233.29 0.2500
 -46.91   286.54 0.2250 0.2250   236.78 0.2500
 -45.06   288.20 0.2250 0.2250   240.09 0.2500
 -43.27   289.77 0.2250 0.2250   243.23 0.2500
 -41.52   291.26 0.2250 0.2250   246.21 0.2500
 -39.83   292.67 0.2250 0.2250   249.04 0.2500
 -38.17   294.02 0.2250 0.2250   251.73 0.2500
 -36.55   295.29 0.2250 0.2250   254.29 0.2500
 -34.96   296.51 0.2250 0.2250   256.71 0.2500
 -33.41   297.66 0.2250 0.2250   259.02 0.2500
 -31.88   298.75 0.2250 0.2250   261.21 0.2500
 -30.37   299.79 0.2250 0.2250   263.28 0.2500
 -28.89   300.77 0.2250 0.2250   265.24 0.2500
 -27.43   301.70 0.2250 0.2250   267.10 0.2500
 -25.99   302.57 0.2250 0.2250   268.85 0.2500
 -24.57   303.40 0.2250 0.2250   270.50 0.2500
 -23.16   304.18 0.2250 0.2250   272.05 0.2500
 -21.76   304.90 0.2250 0.2250   273.51 0.2500
 -20.38   305.58 0.2250 0.2250   274.87 0.2500
 -19.02   306.22 0.2250 0.2250   276.14 0.2500
 -17.66   306.81 0.2250 0.2250   277.31 0.2500
 -16.31   307.35 0.2250 0.2250   278.40 0.2500
 -14.98   307.85 0.2250 0.2250   279.40 0.2500
 -13.65   308.31 0.2250 0.2250   280.31 0.2500
 -12.33   308.72 0.2250 0.2250   281.14 0.2500
 -11.01   309.09 0.2250 0.2250   281.88 0.2500
  -9.70   309.42 0.2250 0.2250   282.54 0.2500
  -8.40   309.71 0.2250 0.2250   283.11 0.2500
  -7.10   309.95 0.2250 0.2250   283.60 0.2500
  -5.80   310.15 0.2250 0.2250   284.01 0.2500
  -4.51   310.32 0.2250 0.2250   284.34 0.2500
  -3.22   310.44 0.2250 0.2250   284.58 0.2500
  -1.93   310.52 0.2250 0.2250   284.74 0.2500
  -0.64   310.56 0.2250 0.2250   284.82 0.2500
   0.64   310.56 0.2250 0.2250   284.82 0.2500
   1.93   310.52 0.2250 0.2250   284.74 0.2500
   3.22   310.44 0.2250 0.2250   284.58 0.2500
   4.51   310.32 0.2250 0.2250   284.34 0.2500
   5.80   310.15 0.2250 0.2250   284.01 0.2500
   7.10   309.95 0.2250 0.2250   283.60 0.2500
   8.40   309.71 0.2250 0.2250   283.11 0.2500
   9.70   309.42 0.2250 0.2250   282.54 0.2500
  11.01   309.09 0.2250 0.2250   281.88 0.2500
  12.33   308.72 0.2250 0.2250   281.14 0.2500
  13.65   308.31 0.2250 0.2250   280.31 0.2500
  14.98   307.85 0.2250 0.2250   279.40 0.2500
  16.31   307.35 0.2250 0.2250   278.40 0.2500
  17.66   306.81 0.2250 0.2250   277.31 0.2500
  19.02   306.22 0.2250 0.2250   276.14 0.2500
  20.38   305.58 0.2250 0.2250   274.87 0.2500
  21.76   304.90 0.2250 0.2250   273.51 0.2500
  23.16   304.18 0.2250 0.2250   272.05 0.2500
  24.57   303.40 0.2250 0.2250   270.50 0.2500
  25.99   302.57 0.2250 0.2250   268.85 0.2500
  27.43   301.70 0.2250 0.2250   267.10 0.2500
  28.89   300.77 0.2250 0.2250   265.24 0.2500
  30.37   299.79 0.2250 0.2250   263.28 0.2500
  31.88   298.75 0.2250 0.2250   261.21 0.2500
  33.41   297.66 0.2250 0.2250   259.02 0.2500
  34.96   296.51 0.2250 0.2250   256.71 0.2500
  36.55   295.29 0.2250 0.2250   254.29 0.2500
  38.17   294.02 0.2250 0.2250   251.73 0.2500
  39.83   292.67 0.2250 0.2250   249.04 0.2500
  41.52   291.26 0.2250 0.2250   246.21 0.2500
  43.27   289.77 0.2250 0.2250   243.23 0.2500
  45.06   288.20 0.2250 0.2250   240.09 0.2500
  46.91   286.54 0.2250 0.2250   236.78 0.2500
  48.83   284.79 0.2250 0.2250   233.29 0.2500
  50.83   282.95 0.2250 0.2250   229.59 0.2500
  52.92   280.99 0.2250 0.2250   225.68 0.2500
  55.11   278.91 0.2250 0.2250   221.51 0.2500
  57.43   276.68 0.2250 0.2250   217.07 0.2500
  59.90   274.29 0.2250 0.2250   212.29 0.2500
  62.58   271.70 0.2250 0.2250   207.10 0.2500
  65.52   268.85 0.2250 0.2250   201.40 0.2500
  68.84   265.64 0.2250 0.2250   194.97 0.2500
  72.76   261.85 0.6000 0.6000   187.41 0.2500
  77.83   257.66 0.6000 0.6000   179.01 0.2500
  90.00   251.43 0.6000 0.6000   166.55 0.2500
