# Name of benchmark/experiment: FILLET Experiment 1a (warm start, au)
# Case number: 98
# Instellation (S_earth): 1.200976
# XCO2 (ppm): 280.0
# Obliquity (degrees): 50.0
# Mode: seasonal
#
# Columns of data (annually averaged for last orbit)
# Lat Tsurf Asurf ATOA OLR Fland
 -90.00   322.66 0.2250 0.2250   309.01 0.2500
 -77.83   322.98 0.2250 0.2250   309.67 0.2500
 -72.76   323.10 0.2250 0.2250   309.90 0.2500
 -68.84   323.19 0.2250 0.2250   310.07 0.2500
 -65.52   323.28 0.2250 0.2250   310.26 0.2500
 -62.58   323.39 0.2250 0.2250   310.47 0.2500
 -59.90   323.50 0.2250 0.2250   310.71 0.2500
 -57.43   323.63 0.2250 0.2250   310.96 0.2500
 -55.11   323.76 0.2250 0.2250   311.23 0.2500
 -52.92   323.91 0.2250 0.2250   311.51 0.2500
 -50.83   324.06 0.2250 0.2250   311.81 0.2500
 -48.83   324.22 0.2250 0.2250   312.13 0.2500
 -46.91   324.39 0.2250 0.2250   312.48 0.2500
 -45.06   324.57 0.2250 0.2250   312.84 0.2500
 -43.27   324.77 0.2250 0.2250   313.23 0.2500
 -41.52   324.97 0.2250 0.2250   313.64 0.2500
 -39.83   325.18 0.2250 0.2250   314.06 0.2500
 -38.17   325.40 0.2250 0.2250   314.50 0.2500
 -36.55   325.62 0.2250 0.2250   314.94 0.2500
 -34.96   325.85 0.2250 0.2250   315.39 0.2500
 -33.41   326.07 0.2250 0.2250   315.85 0.2500
 -31.88   326.30 0.2250 0.2250   316.30 0.2500
 -30.37   326.53 0.2250 0.2250   316.75 0.2500
 -28.89   326.75 0.2250 0.2250   317.20 0.2500
 -27.43   326.97 0.2250 0.2250   317.63 0.2500
 -25.99   327.18 0.2250 0.2250   318.06 0.2500
 -24.57   327.39 0.2250 0.2250   318.48 0.2500
 -23.16   327.59 0.2250 0.2250   318.88 0.2500
 -21.76   327.78 0.2250 0.2250   319.26 0.2500
 -20.38   327.97 0.2250 0.2250   319.63 0.2500
 -19.02   328.14 0.2250 0.2250   319.98 0.2500
 -17.66   328.31 0.2250 0.2250   320.31 0.2500
 -16.31   328.46 0.2250 0.2250   320.62 0.2500
 -14.98   328.61 0.2250 0.2250   320.91 0.2500
 -13.65   328.74 0.2250 0.2250   321.18 0.2500
 -12.33   328.86 0.2250 0.2250   321.43 0.2500
 -11.01   328.97 0.2250 0.2250   321.65 0.2500
  -9.70   329.07 0.2250 0.2250   321.85 0.2500
  -8.40   329.16 0.2250 0.2250   322.02 0.2500
  -7.10   329.24 0.2250 0.2250   322.17 0.2500
  -5.80   329.30 0.2250 0.2250   322.30 0.2500
  -4.51   329.35 0.2250 0.2250   322.40 0.2500
  -3.22   329.39 0.2250 0.2250   322.48 0.2500
  -1.93   329.41 0.2250 0.2250   322.53 0.2500
  -0.64   329.43 0.2250 0.2250   322.55 0.2500
   0.64   329.43 0.2250 0.2250   322.55 0.2500
   1.93   329.41 0.2250 0.2250   322.53 0.2500
   3.22   329.39 0.2250 0.2250   322.48 0.2500
   4.51   329.35 0.2250 0.2250   322.40 0.2500
   5.80   329.30 0.2250 0.2250   322.30 0.2500
   7.10   329.24 0.2250 0.2250   322.17 0.2500
   8.40   329.16 0.2250 0.2250   322.02 0.2500
   9.70   329.07 0.2250 0.2250   321.85 0.2500
  11.01   328.97 0.2250 0.2250   321.65 0.2500
  12.33   328.86 0.2250 0.2250   321.43 0.2500
  13.65   328.74 0.2250 0.2250   321.18 0.2500
  14.98   328.61 0.2250 0.2250   320.91 0.2500
  16.31   328.46 0.2250 0.2250   320.62 0.2500
  17.66   328.31 0.2250 0.2250   320.31 0.2500
  19.02   328.14 0.2250 0.2250   319.98 0.2500
  20.38   327.97 0.2250 0.2250   319.63 0.2500
  21.76   327.78 0.2250 0.2250   319.26 0.2500
  23.16   327.59 0.2250 0.2250   318.88 0.2500
  24.57   327.39 0.2250 0.2250   318.48 0.2500
  25.99   327.18 0.2250 0.2250   318.06 0.2500
  27.43   326.97 0.2250 0.2250   317.63 0.2500
  28.89   326.75 0.2250 0.2250   317.20 0.2500
  30.37   326.53 0.2250 0.2250   316.75 0.2500
  31.88   326.30 0.2250 0.2250   316.30 0.2500
  33.41   326.07 0.2250 0.2250   315.85 0.2500
  34.96   325.85 0.2250 0.2250   315.39 0.2500
  36.55   325.62 0.2250 0.2250   314.94 0.2500
  38.17   325.40 0.2250 0.2250   314.50 0.2500
  39.83   325.18 0.2250 0.2250   314.06 0.2500
  41.52   324.97 0.2250 0.2250   313.64 0.2500
  43.27   324.77 0.2250 0.2250   313.23 0.2500
  45.06   324.57 0.2250 0.2250   312.84 0.2500
  46.91   324.39 0.2250 0.2250   312.48 0.2500
  48.83   324.22 0.2250 0.2250   312.13 0.2500
  50.83   324.06 0.2250 0.2250   311.81 0.2500
  52.92   323.91 0.2250 0.2250   311.51 0.2500
  55.11   323.76 0.2250 0.2250   311.23 0.2500
  57.43   323.63 0.2250 0.2250   310.96 0.2500
  59.90   323.50 0.2250 0.2250   310.71 0.2500
  62.58   323.39 0.2250 0.2250   310.47 0.2500
  65.52   323.28 0.2250 0.2250   310.26 0.2500
  68.84   323.19 0.2250 0.2250   310.07 0.2500
  72.76   323.10 0.2250 0.2250   309.90 0.2500
  77.83   322.98 0.2250 0.2250   309.67 0.2500
  90.00   322.66 0.2250 0.2250   309.01 0.2500
