# Name of benchmark/experiment: FILLET Experiment 1a (warm start, au)
# Case number: 31
# Instellation (S_earth): 0.951814
# XCO2 (ppm): 280.0
# Obliquity (degrees): 10.0
# Mode: seasonal
#
# Columns of data (annually averaged for last orbit)
# Lat Tsurf Asurf ATOA OLR Fland
 -90.00   247.80 0.6000 0.6000   159.31 0.2500
 -77.83   253.74 0.6000 0.6000   171.18 0.2500
 -72.76   257.73 0.6000 0.6000   179.16 0.2500
 -68.84   261.33 0.6000 0.6000   186.35 0.2500
 -65.52   264.75 0.2250 0.2250   193.21 0.2500
 -62.58   267.75 0.2250 0.2250   199.20 0.2500
 -59.90   270.45 0.2250 0.2250   204.59 0.2500
 -57.43   272.91 0.2250 0.2250   209.52 0.2500
 -55.11   275.19 0.2250 0.2250   214.07 0.2500
 -52.92   277.31 0.2250 0.2250   218.32 0.2500
 -50.83   279.30 0.2250 0.2250   222.29 0.2500
 -48.83   281.16 0.2250 0.2250   226.03 0.2500
 -46.91   282.93 0.2250 0.2250   229.55 0.2500
 -45.06   284.59 0.2250 0.2250   232.88 0.2500
 -43.27   286.17 0.2250 0.2250   236.04 0.2500
 -41.52   287.66 0.2250 0.2250   239.02 0.2500
 -39.83   289.08 0.2250 0.2250   241.86 0.2500
 -38.17   290.42 0.2250 0.2250   244.55 0.2500
 -36.55   291.70 0.2250 0.2250   247.10 0.2500
 -34.96   292.91 0.2250 0.2250   249.52 0.2500
 -33.41   294.06 0.2250 0.2250   251.81 0.2500
 -31.88   295.14 0.2250 0.2250   253.99 0.2500
 -30.37   296.18 0.2250 0.2250   256.05 0.2500
 -28.89   297.15 0.2250 0.2250   258.00 0.2500
 -27.43   298.07 0.2250 0.2250   259.85 0.2500
 -25.99   298.94 0.2250 0.2250   261.58 0.2500
 -24.57   299.76 0.2250 0.2250   263.22 0.2500
 -23.16   300.53 0.2250 0.2250   264.76 0.2500
 -21.76   301.25 0.2250 0.2250   266.21 0.2500
 -20.38   301.93 0.2250 0.2250   267.55 0.2500
 -19.02   302.56 0.2250 0.2250   268.81 0.2500
 -17.66   303.14 0.2250 0.2250   269.98 0.2500
 -16.31   303.68 0.2250 0.2250   271.05 0.2500
 -14.98   304.17 0.2250 0.2250   272.04 0.2500
 -13.65   304.62 0.2250 0.2250   272.95 0.2500
 -12.33   305.03 0.2250 0.2250   273.76 0.2500
 -11.01   305.40 0.2250 0.2250   274.50 0.2500
  -9.70   305.72 0.2250 0.2250   275.15 0.2500
  -8.40   306.01 0.2250 0.2250   275.71 0.2500
  -7.10   306.25 0.2250 0.2250   276.20 0.2500
  -5.80   306.45 0.2250 0.2250   276.60 0.2500
  -4.51   306.61 0.2250 0.2250   276.92 0.2500
  -3.22   306.73 0.2250 0.2250   277.16 0.2500
  -1.93   306.81 0.2250 0.2250   277.33 0.2500
  -0.64   306.85 0.2250 0.2250   277.41 0.2500
   0.64   306.85 0.2250 0.2250   277.41 0.2500
   1.93   306.81 0.2250 0.2250   277.33 0.2500
   3.22   306.73 0.2250 0.2250   277.16 0.2500
   4.51   306.61 0.2250 0.2250   276.92 0.2500
   5.80   306.45 0.2250 0.2250   276.60 0.2500
   7.10   306.25 0.2250 0.2250   276.20 0.2500
   8.40   306.01 0.2250 0.2250   275.71 0.2500
   9.70   305.72 0.2250 0.2250   275.15 0.2500
  11.01   305.40 0.2250 0.2250   274.50 0.2500
  12.33   305.03 0.2250 0.2250   273.76 0.2500
  13.65   304.62 0.2250 0.2250   272.95 0.2500
  14.98   304.17 0.2250 0.2250   272.04 0.2500
  16.31   303.68 0.2250 0.2250   271.05 0.2500
  17.66   303.14 0.2250 0.2250   269.98 0.2500
  19.02   302.56 0.2250 0.2250   268.81 0.2500
  20.38   301.93 0.2250 0.2250   267.55 0.2500
  21.76   301.25 0.2250 0.2250   266.21 0.2500
  23.16   300.53 0.2250 0.2250   264.76 0.2500
  24.57   299.76 0.2250 0.2250   263.22 0.2500
  25.99   298.94 0.2250 0.2250   261.58 0.2500
  27.43   298.07 0.2250 0.2250   259.85 0.2500
  28.89   297.15 0.2250 0.2250   258.00 0.2500
  30.37   296.18 0.2250 0.2250   256.05 0.2500
  31.88   295.14 0.2250 0.2250   253.99 0.2500
  33.41   294.06 0.2250 0.2250   251.81 0.2500
  34.96   292.91 0.2250 0.2250   249.52 0.2500
  36.55   291.70 0.2250 0.2250   247.10 0.2500
  38.17   290.42 0.2250 0.2250   244.55 0.2500
  39.83   289.08 0.2250 0.2250   241.86 0.2500
  41.52   287.66 0.2250 0.2250   239.02 0.2500
  43.27   286.17 0.2250 0.2250   236.04 0.2500
  45.06   284.59 0.2250 0.2250   232.88 0.2500
  46.91   282.93 0.2250 0.2250   229.55 0.2500
  48.83   281.16 0.2250 0.2250   226.03 0.2500
  50.83   279.30 0.2250 0.2250   222.29 0.2500
  52.92   277.31 0.2250 0.2250   218.32 0.2500
  55.11   275.19 0.2250 0.2250   214.07 0.2500
  57.43   272.91 0.2250 0.2250   209.52 0.2500
  59.90   270.45 0.2250 0.2250   204.59 0.2500
  62.58   267.75 0.2250 0.2250   199.20 0.2500
  65.52   264.75 0.2250 0.2250   193.21 0.2500
  68.84   261.33 0.6000 0.6000   186.35 0.2500
  72.76   257.73 0.6000 0.6000   179.16 0.2500
  77.83   253.74 0.6000 0.6000   171.18 0.2500
  90.00   247.80 0.6000 0.6000   159.31 0.2500
