# Name of benchmark/experiment: FILLET Experiment 1a (warm start, au)
# Case number: 140
# Instellation (S_earth): 1.07944
# XCO2 (ppm): 280.0
# Obliquity (degrees): 70.0
# Mode: seasonal
#
# Columns of data (annually averaged for last orbit)
# Lat Tsurf Asurf ATOA OLR Fland
 -90.00   322.74 0.2250 0.2250   309.18 0.2500
 -77.83   321.67 0.2250 0.2250   307.05 0.2500
 -72.76   320.84 0.2250 0.2250   305.39 0.2500
 -68.84   320.06 0.2250 0.2250   303.82 0.2500
 -65.52   319.30 0.2250 0.2250   302.31 0.2500
 -62.58   318.57 0.2250 0.2250   300.85 0.2500
 -59.90   317.87 0.2250 0.2250   299.44 0.2500
 -57.43   317.20 0.2250 0.2250   298.10 0.2500
 -55.11   316.55 0.2250 0.2250   296.79 0.2500
 -52.92   315.91 0.2250 0.2250   295.52 0.2500
 -50.83   315.29 0.2250 0.2250   294.29 0.2500
 -48.83   314.69 0.2250 0.2250   293.08 0.2500
 -46.91   314.10 0.2250 0.2250   291.91 0.2500
 -45.06   313.53 0.2250 0.2250   290.76 0.2500
 -43.27   312.97 0.2250 0.2250   289.64 0.2500
 -41.52   312.43 0.2250 0.2250   288.56 0.2500
 -39.83   311.90 0.2250 0.2250   287.50 0.2500
 -38.17   311.39 0.2250 0.2250   286.48 0.2500
 -36.55   310.90 0.2250 0.2250   285.49 0.2500
 -34.96   310.42 0.2250 0.2250   284.55 0.2500
 -33.41   309.97 0.2250 0.2250   283.64 0.2500
 -31.88   309.54 0.2250 0.2250   282.77 0.2500
 -30.37   309.12 0.2250 0.2250   281.95 0.2500
 -28.89   308.73 0.2250 0.2250   281.16 0.2500
 -27.43   308.36 0.2250 0.2250   280.42 0.2500
 -25.99   308.01 0.2250 0.2250   279.71 0.2500
 -24.57   307.67 0.2250 0.2250   279.05 0.2500
 -23.16   307.36 0.2250 0.2250   278.42 0.2500
 -21.76   307.06 0.2250 0.2250   277.83 0.2500
 -20.38   306.79 0.2250 0.2250   277.27 0.2500
 -19.02   306.53 0.2250 0.2250   276.76 0.2500
 -17.66   306.29 0.2250 0.2250   276.29 0.2500
 -16.31   306.08 0.2250 0.2250   275.85 0.2500
 -14.98   305.88 0.2250 0.2250   275.45 0.2500
 -13.65   305.69 0.2250 0.2250   275.09 0.2500
 -12.33   305.53 0.2250 0.2250   274.76 0.2500
 -11.01   305.39 0.2250 0.2250   274.47 0.2500
  -9.70   305.26 0.2250 0.2250   274.22 0.2500
  -8.40   305.15 0.2250 0.2250   273.99 0.2500
  -7.10   305.05 0.2250 0.2250   273.80 0.2500
  -5.80   304.97 0.2250 0.2250   273.65 0.2500
  -4.51   304.91 0.2250 0.2250   273.52 0.2500
  -3.22   304.86 0.2250 0.2250   273.43 0.2500
  -1.93   304.83 0.2250 0.2250   273.36 0.2500
  -0.64   304.82 0.2250 0.2250   273.33 0.2500
   0.64   304.82 0.2250 0.2250   273.33 0.2500
   1.93   304.83 0.2250 0.2250   273.36 0.2500
   3.22   304.86 0.2250 0.2250   273.43 0.2500
   4.51   304.91 0.2250 0.2250   273.52 0.2500
   5.80   304.97 0.2250 0.2250   273.65 0.2500
   7.10   305.05 0.2250 0.2250   273.80 0.2500
   8.40   305.15 0.2250 0.2250   273.99 0.2500
   9.70   305.26 0.2250 0.2250   274.22 0.2500
  11.01   305.39 0.2250 0.2250   274.47 0.2500
  12.33   305.53 0.2250 0.2250   274.76 0.2500
  13.65   305.69 0.2250 0.2250   275.09 0.2500
  14.98   305.88 0.2250 0.2250   275.45 0.2500
  16.31   306.08 0.2250 0.2250   275.85 0.2500
  17.66   306.29 0.2250 0.2250   276.29 0.2500
  19.02   306.53 0.2250 0.2250   276.76 0.2500
  20.38   306.79 0.2250 0.2250   277.27 0.2500
  21.76   307.06 0.2250 0.2250   277.83 0.2500
  23.16   307.36 0.2250 0.2250   278.42 0.2500
  24.57   307.67 0.2250 0.2250   279.05 0.2500
  25.99   308.01 0.2250 0.2250   279.71 0.2500
  27.43   308.36 0.2250 0.2250   280.42 0.2500
  28.89   308.73 0.2250 0.2250   281.16 0.2500
  30.37   309.12 0.2250 0.2250   281.95 0.2500
  31.88   309.54 0.2250 0.2250   282.77 0.2500
  33.41   309.97 0.2250 0.2250   283.64 0.2500
  34.96   310.42 0.2250 0.2250   284.55 0.2500
  36.55   310.90 0.2250 0.2250   285.49 0.2500
  38.17   311.39 0.2250 0.2250   286.48 0.2500
  39.83   311.90 0.2250 0.2250   287.50 0.2500
  41.52   312.43 0.2250 0.2250   288.56 0.2500
  43.27   312.97 0.2250 0.2250   289.64 0.2500
  45.06   313.53 0.2250 0.2250   290.76 0.2500
  46.91   314.10 0.2250 0.2250   291.91 0.2500
  48.83   314.69 0.2250 0.2250   293.08 0.2500
  50.83   315.29 0.2250 0.2250   294.29 0.2500
  52.92   315.91 0.2250 0.2250   295.52 0.2500
  55.11   316.55 0.2250 0.2250   296.79 0.2500
  57.43   317.20 0.2250 0.2250   298.10 0.2500
  59.90   317.87 0.2250 0.2250   299.44 0.2500
  62.58   318.57 0.2250 0.2250   300.85 0.2500
  65.52   319.30 0.2250 0.2250   302.31 0.2500
  68.84   320.06 0.2250 0.2250   303.82 0.2500
  72.76   320.84 0.2250 0.2250   305.39 0.2500
  77.83   321.67 0.2250 0.2250   307.05 0.2500
  90.00   322.74 0.2250 0.2250   309.18 0.2500
