# Name of benchmark/experiment: FILLET Experiment 1a (warm start, au)
# Case number: 4
# Instellation (S_earth): 1.168736
# XCO2 (ppm): 280.0
# Obliquity (degrees): 0.0
# Mode: seasonal
#
# Columns of data (annually averaged for last orbit)
# Lat Tsurf Asurf ATOA OLR Fland
 -90.00   268.10 0.2250 0.2250   199.90 0.2500
 -77.83   277.14 0.2250 0.2250   217.97 0.2500
 -72.76   282.24 0.2250 0.2250   228.19 0.2500
 -68.84   286.38 0.2250 0.2250   236.46 0.2500
 -65.52   290.00 0.2250 0.2250   243.70 0.2500
 -62.58   293.28 0.2250 0.2250   250.25 0.2500
 -59.90   296.29 0.2250 0.2250   256.28 0.2500
 -57.43   299.10 0.2250 0.2250   261.89 0.2500
 -55.11   301.72 0.2250 0.2250   267.15 0.2500
 -52.92   304.19 0.2250 0.2250   272.09 0.2500
 -50.83   306.53 0.2250 0.2250   276.75 0.2500
 -48.83   308.73 0.2250 0.2250   281.17 0.2500
 -46.91   310.83 0.2250 0.2250   285.35 0.2500
 -45.06   312.81 0.2250 0.2250   289.32 0.2500
 -43.27   314.70 0.2250 0.2250   293.10 0.2500
 -41.52   316.49 0.2250 0.2250   296.69 0.2500
 -39.83   318.20 0.2250 0.2250   300.10 0.2500
 -38.17   319.83 0.2250 0.2250   303.35 0.2500
 -36.55   321.37 0.2250 0.2250   306.44 0.2500
 -34.96   322.84 0.2250 0.2250   309.37 0.2500
 -33.41   324.23 0.2250 0.2250   312.16 0.2500
 -31.88   325.56 0.2250 0.2250   314.81 0.2500
 -30.37   326.81 0.2250 0.2250   317.32 0.2500
 -28.89   328.00 0.2250 0.2250   319.70 0.2500
 -27.43   329.13 0.2250 0.2250   321.95 0.2500
 -25.99   330.19 0.2250 0.2250   324.08 0.2500
 -24.57   331.19 0.2250 0.2250   326.08 0.2500
 -23.16   332.13 0.2250 0.2250   327.96 0.2500
 -21.76   333.02 0.2250 0.2250   329.73 0.2500
 -20.38   333.84 0.2250 0.2250   331.39 0.2500
 -19.02   334.61 0.2250 0.2250   332.93 0.2500
 -17.66   335.33 0.2250 0.2250   334.36 0.2500
 -16.31   335.99 0.2250 0.2250   335.68 0.2500
 -14.98   336.60 0.2250 0.2250   336.89 0.2500
 -13.65   337.15 0.2250 0.2250   338.00 0.2500
 -12.33   337.65 0.2250 0.2250   339.01 0.2500
 -11.01   338.10 0.2250 0.2250   339.91 0.2500
  -9.70   338.50 0.2250 0.2250   340.71 0.2500
  -8.40   338.85 0.2250 0.2250   341.41 0.2500
  -7.10   339.15 0.2250 0.2250   342.00 0.2500
  -5.80   339.40 0.2250 0.2250   342.50 0.2500
  -4.51   339.60 0.2250 0.2250   342.89 0.2500
  -3.22   339.75 0.2250 0.2250   343.19 0.2500
  -1.93   339.84 0.2250 0.2250   343.39 0.2500
  -0.64   339.89 0.2250 0.2250   343.49 0.2500
   0.64   339.89 0.2250 0.2250   343.49 0.2500
   1.93   339.84 0.2250 0.2250   343.39 0.2500
   3.22   339.75 0.2250 0.2250   343.19 0.2500
   4.51   339.60 0.2250 0.2250   342.89 0.2500
   5.80   339.40 0.2250 0.2250   342.50 0.2500
   7.10   339.15 0.2250 0.2250   342.00 0.2500
   8.40   338.85 0.2250 0.2250   341.41 0.2500
   9.70   338.50 0.2250 0.2250   340.71 0.2500
  11.01   338.10 0.2250 0.2250   339.91 0.2500
  12.33   337.65 0.2250 0.2250   339.01 0.2500
  13.65   337.15 0.2250 0.2250   338.00 0.2500
  14.98   336.60 0.2250 0.2250   336.89 0.2500
  16.31   335.99 0.2250 0.2250   335.68 0.2500
  17.66   335.33 0.2250 0.2250   334.36 0.2500
  19.02   334.61 0.2250 0.2250   332.93 0.2500
  20.38   333.84 0.2250 0.2250   331.39 0.2500
  21.76   333.02 0.2250 0.2250   329.73 0.2500
  23.16   332.13 0.2250 0.2250   327.96 0.2500
  24.57   331.19 0.2250 0.2250   326.08 0.2500
  25.99   330.19 0.2250 0.2250   324.08 0.2500
  27.43   329.13 0.2250 0.2250   321.95 0.2500
  28.89   328.00 0.2250 0.2250   319.70 0.2500
  30.37   326.81 0.2250 0.2250   317.32 0.2500
  31.88   325.56 0.2250 0.2250   314.81 0.2500
  33.41   324.23 0.2250 0.2250   312.16 0.2500
  34.96   322.84 0.2250 0.2250   309.37 0.2500
  36.55   321.37 0.2250 0.2250   306.44 0.2500
  38.17   319.83 0.2250 0.2250   303.35 0.2500
  39.83   318.20 0.2250 0.2250   300.10 0.2500
  41.52   316.49 0.2250 0.2250   296.69 0.2500
  43.27   314.70 0.2250 0.2250   293.10 0.2500
  45.06   312.81 0.2250 0.2250   289.32 0.2500
  46.91   310.83 0.2250 0.2250   285.35 0.2500
  48.83   308.73 0.2250 0.2250   281.17 0.2500
  50.83   306.53 0.2250 0.2250   276.75 0.2500
  52.92   304.19 0.2250 0.2250   272.09 0.2500
  55.11   301.72 0.2250 0.2250   267.15 0.2500
  57.43   299.10 0.2250 0.2250   261.89 0.2500
  59.90   296.29 0.2250 0.2250   256.28 0.2500
  62.58   293.28 0.2250 0.2250   250.25 0.2500
  65.52   290.00 0.2250 0.2250   243.70 0.2500
  68.84   286.38 0.2250 0.2250   236.46 0.2500
  72.76   282.24 0.2250 0.2250   228.19 0.2500
  77.83   277.14 0.2250 0.2250   217.97 0.2500
  90.00   268.10 0.2250 0.2250   199.90 0.2500
