# Name of benchmark/experiment: FILLET Experiment 1a (warm start, au)
# Case number: 167
# Instellation (S_earth): 0.885813
# XCO2 (ppm): 280.0
# Obliquity (degrees): 80.0
# Mode: seasonal
#
# Columns of data (annually averaged for last orbit)
# Lat Tsurf Asurf ATOA OLR Fland
 -90.00   298.51 0.2250 0.2250   260.72 0.2500
 -77.83   297.36 0.2250 0.2250   258.42 0.2500
 -72.76   296.49 0.2250 0.2250   256.67 0.2500
 -68.84   295.67 0.2250 0.2250   255.04 0.2500
 -65.52   294.88 0.2250 0.2250   253.46 0.2500
 -62.58   294.11 0.2250 0.2250   251.92 0.2500
 -59.90   293.37 0.2250 0.2250   250.44 0.2500
 -57.43   292.65 0.2250 0.2250   249.00 0.2500
 -55.11   291.95 0.2250 0.2250   247.60 0.2500
 -52.92   291.27 0.2250 0.2250   246.24 0.2500
 -50.83   290.61 0.2250 0.2250   244.91 0.2500
 -48.83   289.95 0.2250 0.2250   243.61 0.2500
 -46.91   289.32 0.2250 0.2250   242.34 0.2500
 -45.06   288.69 0.2250 0.2250   241.09 0.2500
 -43.27   288.08 0.2250 0.2250   239.86 0.2500
 -41.52   287.48 0.2250 0.2250   238.66 0.2500
 -39.83   286.90 0.2250 0.2250   237.49 0.2500
 -38.17   286.32 0.2250 0.2250   236.35 0.2500
 -36.55   285.77 0.2250 0.2250   235.23 0.2500
 -34.96   285.22 0.2250 0.2250   234.15 0.2500
 -33.41   284.70 0.2250 0.2250   233.09 0.2500
 -31.88   284.19 0.2250 0.2250   232.08 0.2500
 -30.37   283.70 0.2250 0.2250   231.09 0.2500
 -28.89   283.23 0.2250 0.2250   230.15 0.2500
 -27.43   282.77 0.2250 0.2250   229.25 0.2500
 -25.99   282.34 0.2250 0.2250   228.38 0.2500
 -24.57   281.93 0.2250 0.2250   227.56 0.2500
 -23.16   281.54 0.2250 0.2250   226.77 0.2500
 -21.76   281.16 0.2250 0.2250   226.03 0.2500
 -20.38   280.81 0.2250 0.2250   225.32 0.2500
 -19.02   280.48 0.2250 0.2250   224.65 0.2500
 -17.66   280.16 0.2250 0.2250   224.02 0.2500
 -16.31   279.87 0.2250 0.2250   223.43 0.2500
 -14.98   279.59 0.2250 0.2250   222.88 0.2500
 -13.65   279.34 0.2250 0.2250   222.38 0.2500
 -12.33   279.11 0.2250 0.2250   221.91 0.2500
 -11.01   278.89 0.2250 0.2250   221.49 0.2500
  -9.70   278.71 0.2250 0.2250   221.11 0.2500
  -8.40   278.54 0.2250 0.2250   220.78 0.2500
  -7.10   278.40 0.2250 0.2250   220.49 0.2500
  -5.80   278.28 0.2250 0.2250   220.26 0.2500
  -4.51   278.18 0.2250 0.2250   220.07 0.2500
  -3.22   278.11 0.2250 0.2250   219.92 0.2500
  -1.93   278.06 0.2250 0.2250   219.83 0.2500
  -0.64   278.04 0.2250 0.2250   219.78 0.2500
   0.64   278.04 0.2250 0.2250   219.78 0.2500
   1.93   278.06 0.2250 0.2250   219.83 0.2500
   3.22   278.11 0.2250 0.2250   219.92 0.2500
   4.51   278.18 0.2250 0.2250   220.07 0.2500
   5.80   278.28 0.2250 0.2250   220.26 0.2500
   7.10   278.40 0.2250 0.2250   220.49 0.2500
   8.40   278.54 0.2250 0.2250   220.78 0.2500
   9.70   278.71 0.2250 0.2250   221.11 0.2500
  11.01   278.89 0.2250 0.2250   221.49 0.2500
  12.33   279.11 0.2250 0.2250   221.91 0.2500
  13.65   279.34 0.2250 0.2250   222.38 0.2500
  14.98   279.59 0.2250 0.2250   222.88 0.2500
  16.31   279.87 0.2250 0.2250   223.43 0.2500
  17.66   280.16 0.2250 0.2250   224.02 0.2500
  19.02   280.48 0.2250 0.2250   224.65 0.2500
  20.38   280.81 0.2250 0.2250   225.32 0.2500
  21.76   281.16 0.2250 0.2250   226.03 0.2500
  23.16   281.54 0.2250 0.2250   226.77 0.2500
  24.57   281.93 0.2250 0.2250   227.56 0.2500
  25.99   282.34 0.2250 0.2250   228.38 0.2500
  27.43   282.77 0.2250 0.2250   229.25 0.2500
  28.89   283.23 0.2250 0.2250   230.15 0.2500
  30.37   283.70 0.2250 0.2250   231.09 0.2500
  31.88   284.19 0.2250 0.2250   232.08 0.2500
  33.41   284.70 0.2250 0.2250   233.09 0.2500
  34.96   285.22 0.2250 0.2250   234.15 0.2500
  36.55   285.77 0.2250 0.2250   235.23 0.2500
  38.17   286.32 0.2250 0.2250   236.35 0.2500
  39.83   286.90 0.2250 0.2250   237.49 0.2500
  41.52   287.48 0.2250 0.2250   238.66 0.2500
  43.27   288.08 0.2250 0.2250   239.86 0.2500
  45.06   288.69 0.2250 0.2250   241.09 0.2500
  46.91   289.32 0.2250 0.2250   242.34 0.2500
  48.83   289.95 0.2250 0.2250   243.61 0.2500
  50.83   290.61 0.2250 0.2250   244.91 0.2500
  52.92   291.27 0.2250 0.2250   246.24 0.2500
  55.11   291.95 0.2250 0.2250   247.60 0.2500
  57.43   292.65 0.2250 0.2250   249.00 0.2500
  59.90   293.37 0.2250 0.2250   250.44 0.2500
  62.58   294.11 0.2250 0.2250   251.92 0.2500
  65.52   294.88 0.2250 0.2250   253.46 0.2500
  68.84   295.67 0.2250 0.2250   255.04 0.2500
  72.76   296.49 0.2250 0.2250   256.67 0.2500
  77.83   297.36 0.2250 0.2250   258.42 0.2500
  90.00   298.51 0.2250 0.2250   260.72 0.2500
