# Name of benchmark/experiment: FILLET Experiment 1a (warm start, au)
# Case number: 57
# Instellation (S_earth): 1.306122
# XCO2 (ppm): 280.0
# Obliquity (degrees): 30.0
# Mode: seasonal
#
# Columns of data (annually averaged for last orbit)
# Lat Tsurf Asurf ATOA OLR Fland
 -90.00   310.39 0.2250 0.2250   284.48 0.2500
 -77.83   313.57 0.2250 0.2250   290.83 0.2500
 -72.76   315.64 0.2250 0.2250   294.99 0.2500
 -68.84   317.51 0.2250 0.2250   298.73 0.2500
 -65.52   319.29 0.2250 0.2250   302.28 0.2500
 -62.58   321.00 0.2250 0.2250   305.71 0.2500
 -59.90   322.68 0.2250 0.2250   309.06 0.2500
 -57.43   324.31 0.2250 0.2250   312.33 0.2500
 -55.11   325.91 0.2250 0.2250   315.52 0.2500
 -52.92   327.46 0.2250 0.2250   318.63 0.2500
 -50.83   328.97 0.2250 0.2250   321.64 0.2500
 -48.83   330.43 0.2250 0.2250   324.56 0.2500
 -46.91   331.84 0.2250 0.2250   327.39 0.2500
 -45.06   333.21 0.2250 0.2250   330.12 0.2500
 -43.27   334.53 0.2250 0.2250   332.76 0.2500
 -41.52   335.80 0.2250 0.2250   335.30 0.2500
 -39.83   337.02 0.2250 0.2250   337.74 0.2500
 -38.17   338.20 0.2250 0.2250   340.10 0.2500
 -36.55   339.33 0.2250 0.2250   342.35 0.2500
 -34.96   340.41 0.2250 0.2250   344.52 0.2500
 -33.41   341.45 0.2250 0.2250   346.59 0.2500
 -31.88   342.44 0.2250 0.2250   348.57 0.2500
 -30.37   343.38 0.2250 0.2250   350.46 0.2500
 -28.89   344.28 0.2250 0.2250   352.27 0.2500
 -27.43   345.14 0.2250 0.2250   353.98 0.2500
 -25.99   345.95 0.2250 0.2250   355.61 0.2500
 -24.57   346.72 0.2250 0.2250   357.15 0.2500
 -23.16   347.45 0.2250 0.2250   358.60 0.2500
 -21.76   348.14 0.2250 0.2250   359.97 0.2500
 -20.38   348.78 0.2250 0.2250   361.26 0.2500
 -19.02   349.38 0.2250 0.2250   362.46 0.2500
 -17.66   349.94 0.2250 0.2250   363.58 0.2500
 -16.31   350.46 0.2250 0.2250   364.61 0.2500
 -14.98   350.93 0.2250 0.2250   365.57 0.2500
 -13.65   351.37 0.2250 0.2250   366.44 0.2500
 -12.33   351.77 0.2250 0.2250   367.23 0.2500
 -11.01   352.12 0.2250 0.2250   367.95 0.2500
  -9.70   352.44 0.2250 0.2250   368.58 0.2500
  -8.40   352.71 0.2250 0.2250   369.13 0.2500
  -7.10   352.95 0.2250 0.2250   369.60 0.2500
  -5.80   353.15 0.2250 0.2250   370.00 0.2500
  -4.51   353.31 0.2250 0.2250   370.31 0.2500
  -3.22   353.42 0.2250 0.2250   370.55 0.2500
  -1.93   353.50 0.2250 0.2250   370.70 0.2500
  -0.64   353.54 0.2250 0.2250   370.78 0.2500
   0.64   353.54 0.2250 0.2250   370.78 0.2500
   1.93   353.50 0.2250 0.2250   370.70 0.2500
   3.22   353.42 0.2250 0.2250   370.55 0.2500
   4.51   353.31 0.2250 0.2250   370.31 0.2500
   5.80   353.15 0.2250 0.2250   370.00 0.2500
   7.10   352.95 0.2250 0.2250   369.60 0.2500
   8.40   352.71 0.2250 0.2250   369.13 0.2500
   9.70   352.44 0.2250 0.2250   368.58 0.2500
  11.01   352.12 0.2250 0.2250   367.95 0.2500
  12.33   351.77 0.2250 0.2250   367.23 0.2500
  13.65   351.37 0.2250 0.2250   366.44 0.2500
  14.98   350.93 0.2250 0.2250   365.57 0.2500
  16.31   350.46 0.2250 0.2250   364.61 0.2500
  17.66   349.94 0.2250 0.2250   363.58 0.2500
  19.02   349.38 0.2250 0.2250   362.46 0.2500
  20.38   348.78 0.2250 0.2250   361.26 0.2500
  21.76   348.14 0.2250 0.2250   359.97 0.2500
  23.16   347.45 0.2250 0.2250   358.60 0.2500
  24.57   346.72 0.2250 0.2250   357.15 0.2500
  25.99   345.95 0.2250 0.2250   355.61 0.2500
  27.43   345.14 0.2250 0.2250   353.98 0.2500
  28.89   344.28 0.2250 0.2250   352.27 0.2500
  30.37   343.38 0.2250 0.2250   350.46 0.2500
  31.88   342.44 0.2250 0.2250   348.57 0.2500
  33.41   341.45 0.2250 0.2250   346.59 0.2500
  34.96   340.41 0.2250 0.2250   344.52 0.2500
  36.55   339.33 0.2250 0.2250   342.35 0.2500
  38.17   338.20 0.2250 0.2250   340.10 0.2500
  39.83   337.02 0.2250 0.2250   337.74 0.2500
  41.52   335.80 0.2250 0.2250   335.30 0.2500
  43.27   334.53 0.2250 0.2250   332.76 0.2500
  45.06   333.21 0.2250 0.2250   330.12 0.2500
  46.91   331.84 0.2250 0.2250   327.39 0.2500
  48.83   330.43 0.2250 0.2250   324.56 0.2500
  50.83   328.97 0.2250 0.2250   321.64 0.2500
  52.92   327.46 0.2250 0.2250   318.63 0.2500
  55.11   325.91 0.2250 0.2250   315.52 0.2500
  57.43   324.31 0.2250 0.2250   312.33 0.2500
  59.90   322.68 0.2250 0.2250   309.06 0.2500
  62.58   321.00 0.2250 0.2250   305.71 0.2500
  65.52   319.29 0.2250 0.2250   302.28 0.2500
  68.84   317.51 0.2250 0.2250   298.73 0.2500
  72.76   315.64 0.2250 0.2250   294.99 0.2500
  77.83   313.57 0.2250 0.2250   290.83 0.2500
  90.00   310.39 0.2250 0.2250   284.48 0.2500
