# Name of benchmark/experiment: FILLET Experiment 1a (warm start, au)
# Case number: 58
# Instellation (S_earth): 1.269589
# XCO2 (ppm): 280.0
# Obliquity (degrees): 30.0
# Mode: seasonal
#
# Columns of data (annually averaged for last orbit)
# Lat Tsurf Asurf ATOA OLR Fland
 -90.00   306.41 0.2250 0.2250   276.53 0.2500
 -77.83   309.50 0.2250 0.2250   282.70 0.2500
 -72.76   311.52 0.2250 0.2250   286.74 0.2500
 -68.84   313.34 0.2250 0.2250   290.37 0.2500
 -65.52   315.06 0.2250 0.2250   293.82 0.2500
 -62.58   316.73 0.2250 0.2250   297.16 0.2500
 -59.90   318.36 0.2250 0.2250   300.41 0.2500
 -57.43   319.95 0.2250 0.2250   303.59 0.2500
 -55.11   321.50 0.2250 0.2250   306.69 0.2500
 -52.92   323.01 0.2250 0.2250   309.71 0.2500
 -50.83   324.47 0.2250 0.2250   312.64 0.2500
 -48.83   325.89 0.2250 0.2250   315.48 0.2500
 -46.91   327.27 0.2250 0.2250   318.23 0.2500
 -45.06   328.59 0.2250 0.2250   320.89 0.2500
 -43.27   329.88 0.2250 0.2250   323.45 0.2500
 -41.52   331.11 0.2250 0.2250   325.92 0.2500
 -39.83   332.30 0.2250 0.2250   328.30 0.2500
 -38.17   333.44 0.2250 0.2250   330.58 0.2500
 -36.55   334.54 0.2250 0.2250   332.78 0.2500
 -34.96   335.59 0.2250 0.2250   334.88 0.2500
 -33.41   336.60 0.2250 0.2250   336.90 0.2500
 -31.88   337.56 0.2250 0.2250   338.82 0.2500
 -30.37   338.48 0.2250 0.2250   340.66 0.2500
 -28.89   339.36 0.2250 0.2250   342.41 0.2500
 -27.43   340.19 0.2250 0.2250   344.08 0.2500
 -25.99   340.98 0.2250 0.2250   345.66 0.2500
 -24.57   341.73 0.2250 0.2250   347.16 0.2500
 -23.16   342.44 0.2250 0.2250   348.57 0.2500
 -21.76   343.10 0.2250 0.2250   349.90 0.2500
 -20.38   343.73 0.2250 0.2250   351.15 0.2500
 -19.02   344.31 0.2250 0.2250   352.32 0.2500
 -17.66   344.85 0.2250 0.2250   353.41 0.2500
 -16.31   345.36 0.2250 0.2250   354.42 0.2500
 -14.98   345.82 0.2250 0.2250   355.34 0.2500
 -13.65   346.25 0.2250 0.2250   356.19 0.2500
 -12.33   346.63 0.2250 0.2250   356.96 0.2500
 -11.01   346.98 0.2250 0.2250   357.65 0.2500
  -9.70   347.28 0.2250 0.2250   358.27 0.2500
  -8.40   347.55 0.2250 0.2250   358.81 0.2500
  -7.10   347.78 0.2250 0.2250   359.26 0.2500
  -5.80   347.97 0.2250 0.2250   359.65 0.2500
  -4.51   348.13 0.2250 0.2250   359.95 0.2500
  -3.22   348.24 0.2250 0.2250   360.18 0.2500
  -1.93   348.32 0.2250 0.2250   360.34 0.2500
  -0.64   348.36 0.2250 0.2250   360.41 0.2500
   0.64   348.36 0.2250 0.2250   360.41 0.2500
   1.93   348.32 0.2250 0.2250   360.34 0.2500
   3.22   348.24 0.2250 0.2250   360.18 0.2500
   4.51   348.13 0.2250 0.2250   359.95 0.2500
   5.80   347.97 0.2250 0.2250   359.65 0.2500
   7.10   347.78 0.2250 0.2250   359.26 0.2500
   8.40   347.55 0.2250 0.2250   358.81 0.2500
   9.70   347.28 0.2250 0.2250   358.27 0.2500
  11.01   346.98 0.2250 0.2250   357.65 0.2500
  12.33   346.63 0.2250 0.2250   356.96 0.2500
  13.65   346.25 0.2250 0.2250   356.19 0.2500
  14.98   345.82 0.2250 0.2250   355.34 0.2500
  16.31   345.36 0.2250 0.2250   354.42 0.2500
  17.66   344.85 0.2250 0.2250   353.41 0.2500
  19.02   344.31 0.2250 0.2250   352.32 0.2500
  20.38   343.73 0.2250 0.2250   351.15 0.2500
  21.76   343.10 0.2250 0.2250   349.90 0.2500
  23.16   342.44 0.2250 0.2250   348.57 0.2500
  24.57   341.73 0.2250 0.2250   347.16 0.2500
  25.99   340.98 0.2250 0.2250   345.66 0.2500
  27.43   340.19 0.2250 0.2250   344.08 0.2500
  28.89   339.36 0.2250 0.2250   342.41 0.2500
  30.37   338.48 0.2250 0.2250   340.66 0.2500
  31.88   337.56 0.2250 0.2250   338.82 0.2500
  33.41   336.60 0.2250 0.2250   336.90 0.2500
  34.96   335.59 0.2250 0.2250   334.88 0.2500
  36.55   334.54 0.2250 0.2250   332.78 0.2500
  38.17   333.44 0.2250 0.2250   330.58 0.2500
  39.83   332.30 0.2250 0.2250   328.30 0.2500
  41.52   331.11 0.2250 0.2250   325.92 0.2500
  43.27   329.88 0.2250 0.2250   323.45 0.2500
  45.06   328.59 0.2250 0.2250   320.89 0.2500
  46.91   327.27 0.2250 0.2250   318.23 0.2500
  48.83   325.89 0.2250 0.2250   315.48 0.2500
  50.83   324.47 0.2250 0.2250   312.64 0.2500
  52.92   323.01 0.2250 0.2250   309.71 0.2500
  55.11   321.50 0.2250 0.2250   306.69 0.2500
  57.43   319.95 0.2250 0.2250   303.59 0.2500
  59.90   318.36 0.2250 0.2250   300.41 0.2500
  62.58   316.73 0.2250 0.2250   297.16 0.2500
  65.52   315.06 0.2250 0.2250   293.82 0.2500
  68.84   313.34 0.2250 0.2250   290.37 0.2500
  72.76   311.52 0.2250 0.2250   286.74 0.2500
  77.83   309.50 0.2250 0.2250   282.70 0.2500
  90.00   306.41 0.2250 0.2250   276.53 0.2500
