# Name of benchmark/experiment: FILLET Experiment 1a (warm start, au)
# Case number: 12
# Instellation (S_earth): 0.951814
# XCO2 (ppm): 280.0
# Obliquity (degrees): 0.0
# Mode: seasonal
#
# Columns of data (annually averaged for last orbit)
# Lat Tsurf Asurf ATOA OLR Fland
 -90.00   245.00 0.6000 0.6000   153.69 0.2500
 -77.83   251.94 0.6000 0.6000   167.59 0.2500
 -72.76   256.31 0.6000 0.6000   176.32 0.2500
 -68.84   260.14 0.6000 0.6000   183.97 0.2500
 -65.52   263.73 0.2250 0.2250   191.17 0.2500
 -62.58   266.88 0.2250 0.2250   197.45 0.2500
 -59.90   269.69 0.2250 0.2250   203.09 0.2500
 -57.43   272.27 0.2250 0.2250   208.24 0.2500
 -55.11   274.65 0.2250 0.2250   212.99 0.2500
 -52.92   276.86 0.2250 0.2250   217.42 0.2500
 -50.83   278.93 0.2250 0.2250   221.55 0.2500
 -48.83   280.87 0.2250 0.2250   225.44 0.2500
 -46.91   282.70 0.2250 0.2250   229.10 0.2500
 -45.06   284.43 0.2250 0.2250   232.56 0.2500
 -43.27   286.07 0.2250 0.2250   235.83 0.2500
 -41.52   287.62 0.2250 0.2250   238.93 0.2500
 -39.83   289.09 0.2250 0.2250   241.87 0.2500
 -38.17   290.48 0.2250 0.2250   244.66 0.2500
 -36.55   291.80 0.2250 0.2250   247.30 0.2500
 -34.96   293.05 0.2250 0.2250   249.80 0.2500
 -33.41   294.24 0.2250 0.2250   252.18 0.2500
 -31.88   295.37 0.2250 0.2250   254.43 0.2500
 -30.37   296.43 0.2250 0.2250   256.56 0.2500
 -28.89   297.44 0.2250 0.2250   258.58 0.2500
 -27.43   298.39 0.2250 0.2250   260.48 0.2500
 -25.99   299.29 0.2250 0.2250   262.28 0.2500
 -24.57   300.14 0.2250 0.2250   263.97 0.2500
 -23.16   300.93 0.2250 0.2250   265.56 0.2500
 -21.76   301.68 0.2250 0.2250   267.05 0.2500
 -20.38   302.37 0.2250 0.2250   268.44 0.2500
 -19.02   303.02 0.2250 0.2250   269.74 0.2500
 -17.66   303.62 0.2250 0.2250   270.94 0.2500
 -16.31   304.18 0.2250 0.2250   272.06 0.2500
 -14.98   304.69 0.2250 0.2250   273.08 0.2500
 -13.65   305.15 0.2250 0.2250   274.01 0.2500
 -12.33   305.58 0.2250 0.2250   274.85 0.2500
 -11.01   305.95 0.2250 0.2250   275.61 0.2500
  -9.70   306.29 0.2250 0.2250   276.28 0.2500
  -8.40   306.58 0.2250 0.2250   276.86 0.2500
  -7.10   306.83 0.2250 0.2250   277.36 0.2500
  -5.80   307.04 0.2250 0.2250   277.78 0.2500
  -4.51   307.20 0.2250 0.2250   278.11 0.2500
  -3.22   307.33 0.2250 0.2250   278.36 0.2500
  -1.93   307.41 0.2250 0.2250   278.52 0.2500
  -0.64   307.45 0.2250 0.2250   278.60 0.2500
   0.64   307.45 0.2250 0.2250   278.60 0.2500
   1.93   307.41 0.2250 0.2250   278.52 0.2500
   3.22   307.33 0.2250 0.2250   278.36 0.2500
   4.51   307.20 0.2250 0.2250   278.11 0.2500
   5.80   307.04 0.2250 0.2250   277.78 0.2500
   7.10   306.83 0.2250 0.2250   277.36 0.2500
   8.40   306.58 0.2250 0.2250   276.86 0.2500
   9.70   306.29 0.2250 0.2250   276.28 0.2500
  11.01   305.95 0.2250 0.2250   275.61 0.2500
  12.33   305.58 0.2250 0.2250   274.85 0.2500
  13.65   305.15 0.2250 0.2250   274.01 0.2500
  14.98   304.69 0.2250 0.2250   273.08 0.2500
  16.31   304.18 0.2250 0.2250   272.06 0.2500
  17.66   303.62 0.2250 0.2250   270.94 0.2500
  19.02   303.02 0.2250 0.2250   269.74 0.2500
  20.38   302.37 0.2250 0.2250   268.44 0.2500
  21.76   301.68 0.2250 0.2250   267.05 0.2500
  23.16   300.93 0.2250 0.2250   265.56 0.2500
  24.57   300.14 0.2250 0.2250   263.97 0.2500
  25.99   299.29 0.2250 0.2250   262.28 0.2500
  27.43   298.39 0.2250 0.2250   260.48 0.2500
  28.89   297.44 0.2250 0.2250   258.58 0.2500
  30.37   296.43 0.2250 0.2250   256.56 0.2500
  31.88   295.37 0.2250 0.2250   254.43 0.2500
  33.41   294.24 0.2250 0.2250   252.18 0.2500
  34.96   293.05 0.2250 0.2250   249.80 0.2500
  36.55   291.80 0.2250 0.2250   247.30 0.2500
  38.17   290.48 0.2250 0.2250   244.66 0.2500
  39.83   289.09 0.2250 0.2250   241.87 0.2500
  41.52   287.62 0.2250 0.2250   238.93 0.2500
  43.27   286.07 0.2250 0.2250   235.83 0.2500
  45.06   284.43 0.2250 0.2250   232.56 0.2500
  46.91   282.70 0.2250 0.2250   229.10 0.2500
  48.83   280.87 0.2250 0.2250   225.44 0.2500
  50.83   278.93 0.2250 0.2250   221.55 0.2500
  52.92   276.86 0.2250 0.2250   217.42 0.2500
  55.11   274.65 0.2250 0.2250   212.99 0.2500
  57.43   272.27 0.2250 0.2250   208.24 0.2500
  59.90   269.69 0.2250 0.2250   203.09 0.2500
  62.58   266.88 0.2250 0.2250   197.45 0.2500
  65.52   263.73 0.2250 0.2250   191.17 0.2500
  68.84   260.14 0.6000 0.6000   183.97 0.2500
  72.76   256.31 0.6000 0.6000   176.32 0.2500
  77.83   251.94 0.6000 0.6000   167.59 0.2500
  90.00   245.00 0.6000 0.6000   153.69 0.2500
