# Name of benchmark/experiment: FILLET Experiment 2 (cold start)
# Case number: 4
# Instellation (S_earth): 1.15
# XCO2 (ppm): 280.0
# Obliquity (degrees): 0.0
# Mode: seasonal
#
# Columns of data (annually averaged for last orbit)
# Lat Tsurf Asurf ATOA OLR Fland
 -90.00   218.91 0.6000 0.6000   101.52 0.2500
 -77.83   223.50 0.6000 0.6000   110.70 0.2500
 -72.76   226.09 0.6000 0.6000   115.89 0.2500
 -68.84   228.19 0.6000 0.6000   120.08 0.2500
 -65.52   230.03 0.6000 0.6000   123.76 0.2500
 -62.58   231.70 0.6000 0.6000   127.09 0.2500
 -59.90   233.23 0.6000 0.6000   130.15 0.2500
 -57.43   234.65 0.6000 0.6000   133.00 0.2500
 -55.11   235.99 0.6000 0.6000   135.67 0.2500
 -52.92   237.24 0.6000 0.6000   138.18 0.2500
 -50.83   238.42 0.6000 0.6000   140.55 0.2500
 -48.83   239.55 0.6000 0.6000   142.79 0.2500
 -46.91   240.61 0.6000 0.6000   144.92 0.2500
 -45.06   241.62 0.6000 0.6000   146.93 0.2500
 -43.27   242.58 0.6000 0.6000   148.85 0.2500
 -41.52   243.49 0.6000 0.6000   150.67 0.2500
 -39.83   244.35 0.6000 0.6000   152.41 0.2500
 -38.17   245.18 0.6000 0.6000   154.06 0.2500
 -36.55   245.96 0.6000 0.6000   155.63 0.2500
 -34.96   246.71 0.6000 0.6000   157.12 0.2500
 -33.41   247.42 0.6000 0.6000   158.53 0.2500
 -31.88   248.09 0.6000 0.6000   159.88 0.2500
 -30.37   248.73 0.6000 0.6000   161.15 0.2500
 -28.89   249.33 0.6000 0.6000   162.36 0.2500
 -27.43   249.90 0.6000 0.6000   163.50 0.2500
 -25.99   250.44 0.6000 0.6000   164.58 0.2500
 -24.57   250.95 0.6000 0.6000   165.60 0.2500
 -23.16   251.43 0.6000 0.6000   166.56 0.2500
 -21.76   251.88 0.6000 0.6000   167.46 0.2500
 -20.38   252.30 0.6000 0.6000   168.30 0.2500
 -19.02   252.69 0.6000 0.6000   169.08 0.2500
 -17.66   253.05 0.6000 0.6000   169.80 0.2500
 -16.31   253.39 0.6000 0.6000   170.48 0.2500
 -14.98   253.70 0.6000 0.6000   171.09 0.2500
 -13.65   253.98 0.6000 0.6000   171.66 0.2500
 -12.33   254.23 0.6000 0.6000   172.17 0.2500
 -11.01   254.46 0.6000 0.6000   172.62 0.2500
  -9.70   254.67 0.6000 0.6000   173.03 0.2500
  -8.40   254.84 0.6000 0.6000   173.38 0.2500
  -7.10   254.99 0.6000 0.6000   173.69 0.2500
  -5.80   255.12 0.6000 0.6000   173.94 0.2500
  -4.51   255.22 0.6000 0.6000   174.14 0.2500
  -3.22   255.30 0.6000 0.6000   174.29 0.2500
  -1.93   255.35 0.6000 0.6000   174.39 0.2500
  -0.64   255.37 0.6000 0.6000   174.44 0.2500
   0.64   255.37 0.6000 0.6000   174.44 0.2500
   1.93   255.35 0.6000 0.6000   174.39 0.2500
   3.22   255.30 0.6000 0.6000   174.29 0.2500
   4.51   255.22 0.6000 0.6000   174.14 0.2500
   5.80   255.12 0.6000 0.6000   173.94 0.2500
   7.10   254.99 0.6000 0.6000   173.69 0.2500
   8.40   254.84 0.6000 0.6000   173.38 0.2500
   9.70   254.67 0.6000 0.6000   173.03 0.2500
  11.01   254.46 0.6000 0.6000   172.62 0.2500
  12.33   254.23 0.6000 0.6000   172.17 0.2500
  13.65   253.98 0.6000 0.6000   171.66 0.2500
  14.98   253.70 0.6000 0.6000   171.09 0.2500
  16.31   253.39 0.6000 0.6000   170.48 0.2500
  17.66   253.05 0.6000 0.6000   169.80 0.2500
  19.02   252.69 0.6000 0.6000   169.08 0.2500
  20.38   252.30 0.6000 0.6000   168.30 0.2500
  21.76   251.88 0.6000 0.6000   167.46 0.2500
  23.16   251.43 0.6000 0.6000   166.56 0.2500
  24.57   250.95 0.6000 0.6000   165.60 0.2500
  25.99   250.44 0.6000 0.6000   164.58 0.2500
  27.43   249.90 0.6000 0.6000   163.50 0.2500
  28.89   249.33 0.6000 0.6000   162.36 0.2500
  30.37   248.73 0.6000 0.6000   161.15 0.2500
  31.88   248.09 0.6000 0.6000   159.88 0.2500
  33.41   247.42 0.6000 0.6000   158.53 0.2500
  34.96   246.71 0.6000 0.6000   157.12 0.2500
  36.55   245.96 0.6000 0.6000   155.63 0.2500
  38.17   245.18 0.6000 0.6000   154.06 0.2500
  39.83   244.35 0.6000 0.6000   152.41 0.2500
  41.52   243.49 0.6000 0.6000   150.67 0.2500
  43.27   242.58 0.6000 0.6000   148.85 0.2500
  45.06   241.62 0.6000 0.6000   146.93 0.2500
  46.91   240.61 0.6000 0.6000   144.92 0.2500
  48.83   239.55 0.6000 0.6000   142.79 0.2500
  50.83   238.42 0.6000 0.6000   140.55 0.2500
  52.92   237.24 0.6000 0.6000   138.18 0.2500
  55.11   235.99 0.6000 0.6000   135.67 0.2500
  57.43   234.65 0.6000 0.6000   133.00 0.2500
  59.90   233.23 0.6000 0.6000   130.15 0.2500
  62.58   231.70 0.6000 0.6000   127.09 0.2500
  65.52   230.03 0.6000 0.6000   123.76 0.2500
  68.84   228.19 0.6000 0.6000   120.08 0.2500
  72.76   226.09 0.6000 0.6000   115.89 0.2500
  77.83   223.50 0.6000 0.6000   110.70 0.2500
  90.00   218.91 0.6000 0.6000   101.52 0.2500
