# Name of benchmark/experiment: FILLET Experiment 2 (cold start)
# Case number: 55
# Instellation (S_earth): 1.475
# XCO2 (ppm): 280.0
# Obliquity (degrees): 20.0
# Mode: seasonal
#
# Columns of data (annually averaged for last orbit)
# Lat Tsurf Asurf ATOA OLR Fland
 -90.00   314.46 0.2250 0.2250   292.63 0.2500
 -77.83   320.21 0.2250 0.2250   304.12 0.2500
 -72.76   324.01 0.2250 0.2250   311.72 0.2500
 -68.84   327.38 0.2250 0.2250   318.47 0.2500
 -65.52   330.53 0.2250 0.2250   324.76 0.2500
 -62.58   333.50 0.2250 0.2250   330.70 0.2500
 -59.90   336.32 0.2250 0.2250   336.33 0.2500
 -57.43   339.00 0.2250 0.2250   341.70 0.2500
 -55.11   341.56 0.2250 0.2250   346.82 0.2500
 -52.92   344.00 0.2250 0.2250   351.70 0.2500
 -50.83   346.34 0.2250 0.2250   356.37 0.2500
 -48.83   348.57 0.2250 0.2250   360.84 0.2500
 -46.91   350.70 0.2250 0.2250   365.11 0.2500
 -45.06   352.74 0.2250 0.2250   369.19 0.2500
 -43.27   354.70 0.2250 0.2250   373.10 0.2500
 -41.52   356.57 0.2250 0.2250   376.83 0.2500
 -39.83   358.35 0.2250 0.2250   380.40 0.2500
 -38.17   360.06 0.2250 0.2250   383.81 0.2500
 -36.55   361.68 0.2250 0.2250   387.07 0.2500
 -34.96   363.24 0.2250 0.2250   390.18 0.2500
 -33.41   364.72 0.2250 0.2250   393.14 0.2500
 -31.88   366.13 0.2250 0.2250   395.96 0.2500
 -30.37   367.47 0.2250 0.2250   398.64 0.2500
 -28.89   368.75 0.2250 0.2250   401.19 0.2500
 -27.43   369.95 0.2250 0.2250   403.61 0.2500
 -25.99   371.10 0.2250 0.2250   405.89 0.2500
 -24.57   372.18 0.2250 0.2250   408.05 0.2500
 -23.16   373.19 0.2250 0.2250   410.08 0.2500
 -21.76   374.15 0.2250 0.2250   412.00 0.2500
 -20.38   375.04 0.2250 0.2250   413.78 0.2500
 -19.02   375.88 0.2250 0.2250   415.46 0.2500
 -17.66   376.65 0.2250 0.2250   417.01 0.2500
 -16.31   377.37 0.2250 0.2250   418.44 0.2500
 -14.98   378.03 0.2250 0.2250   419.77 0.2500
 -13.65   378.64 0.2250 0.2250   420.97 0.2500
 -12.33   379.18 0.2250 0.2250   422.07 0.2500
 -11.01   379.67 0.2250 0.2250   423.05 0.2500
  -9.70   380.11 0.2250 0.2250   423.92 0.2500
  -8.40   380.49 0.2250 0.2250   424.68 0.2500
  -7.10   380.82 0.2250 0.2250   425.33 0.2500
  -5.80   381.09 0.2250 0.2250   425.87 0.2500
  -4.51   381.30 0.2250 0.2250   426.31 0.2500
  -3.22   381.46 0.2250 0.2250   426.63 0.2500
  -1.93   381.57 0.2250 0.2250   426.85 0.2500
  -0.64   381.63 0.2250 0.2250   426.95 0.2500
   0.64   381.63 0.2250 0.2250   426.95 0.2500
   1.93   381.57 0.2250 0.2250   426.85 0.2500
   3.22   381.46 0.2250 0.2250   426.63 0.2500
   4.51   381.30 0.2250 0.2250   426.31 0.2500
   5.80   381.09 0.2250 0.2250   425.87 0.2500
   7.10   380.82 0.2250 0.2250   425.33 0.2500
   8.40   380.49 0.2250 0.2250   424.68 0.2500
   9.70   380.11 0.2250 0.2250   423.92 0.2500
  11.01   379.67 0.2250 0.2250   423.05 0.2500
  12.33   379.18 0.2250 0.2250   422.07 0.2500
  13.65   378.64 0.2250 0.2250   420.97 0.2500
  14.98   378.03 0.2250 0.2250   419.77 0.2500
  16.31   377.37 0.2250 0.2250   418.44 0.2500
  17.66   376.65 0.2250 0.2250   417.01 0.2500
  19.02   375.88 0.2250 0.2250   415.46 0.2500
  20.38   375.04 0.2250 0.2250   413.78 0.2500
  21.76   374.15 0.2250 0.2250   412.00 0.2500
  23.16   373.19 0.2250 0.2250   410.08 0.2500
  24.57   372.18 0.2250 0.2250   408.05 0.2500
  25.99   371.10 0.2250 0.2250   405.89 0.2500
  27.43   369.95 0.2250 0.2250   403.61 0.2500
  28.89   368.75 0.2250 0.2250   401.19 0.2500
  30.37   367.47 0.2250 0.2250   398.64 0.2500
  31.88   366.13 0.2250 0.2250   395.96 0.2500
  33.41   364.72 0.2250 0.2250   393.14 0.2500
  34.96   363.24 0.2250 0.2250   390.18 0.2500
  36.55   361.68 0.2250 0.2250   387.07 0.2500
  38.17   360.06 0.2250 0.2250   383.81 0.2500
  39.83   358.35 0.2250 0.2250   380.40 0.2500
  41.52   356.57 0.2250 0.2250   376.83 0.2500
  43.27   354.70 0.2250 0.2250   373.10 0.2500
  45.06   352.74 0.2250 0.2250   369.19 0.2500
  46.91   350.70 0.2250 0.2250   365.11 0.2500
  48.83   348.57 0.2250 0.2250   360.84 0.2500
  50.83   346.34 0.2250 0.2250   356.37 0.2500
  52.92   344.00 0.2250 0.2250   351.70 0.2500
  55.11   341.56 0.2250 0.2250   346.82 0.2500
  57.43   339.00 0.2250 0.2250   341.70 0.2500
  59.90   336.32 0.2250 0.2250   336.33 0.2500
  62.58   333.50 0.2250 0.2250   330.70 0.2500
  65.52   330.53 0.2250 0.2250   324.76 0.2500
  68.84   327.38 0.2250 0.2250   318.47 0.2500
  72.76   324.01 0.2250 0.2250   311.72 0.2500
  77.83   320.21 0.2250 0.2250   304.12 0.2500
  90.00   314.46 0.2250 0.2250   292.63 0.2500
