# Name of benchmark/experiment: FILLET Experiment 2 (cold start)
# Case number: 170
# Instellation (S_earth): 1.5
# XCO2 (ppm): 280.0
# Obliquity (degrees): 80.0
# Mode: seasonal
#
# Columns of data (annually averaged for last orbit)
# Lat Tsurf Asurf ATOA OLR Fland
 -90.00   388.89 0.2250 0.2250   441.49 0.2500
 -77.83   386.95 0.2250 0.2250   437.59 0.2500
 -72.76   385.47 0.2250 0.2250   434.64 0.2500
 -68.84   384.08 0.2250 0.2250   431.87 0.2500
 -65.52   382.74 0.2250 0.2250   429.19 0.2500
 -62.58   381.45 0.2250 0.2250   426.59 0.2500
 -59.90   380.19 0.2250 0.2250   424.07 0.2500
 -57.43   378.97 0.2250 0.2250   421.64 0.2500
 -55.11   377.79 0.2250 0.2250   419.27 0.2500
 -52.92   376.63 0.2250 0.2250   416.97 0.2500
 -50.83   375.51 0.2250 0.2250   414.72 0.2500
 -48.83   374.41 0.2250 0.2250   412.52 0.2500
 -46.91   373.33 0.2250 0.2250   410.36 0.2500
 -45.06   372.27 0.2250 0.2250   408.24 0.2500
 -43.27   371.24 0.2250 0.2250   406.17 0.2500
 -41.52   370.22 0.2250 0.2250   404.14 0.2500
 -39.83   369.23 0.2250 0.2250   402.16 0.2500
 -38.17   368.26 0.2250 0.2250   400.22 0.2500
 -36.55   367.31 0.2250 0.2250   398.33 0.2500
 -34.96   366.40 0.2250 0.2250   396.49 0.2500
 -33.41   365.50 0.2250 0.2250   394.71 0.2500
 -31.88   364.64 0.2250 0.2250   392.98 0.2500
 -30.37   363.81 0.2250 0.2250   391.32 0.2500
 -28.89   363.01 0.2250 0.2250   389.73 0.2500
 -27.43   362.25 0.2250 0.2250   388.20 0.2500
 -25.99   361.52 0.2250 0.2250   386.73 0.2500
 -24.57   360.82 0.2250 0.2250   385.34 0.2500
 -23.16   360.15 0.2250 0.2250   384.01 0.2500
 -21.76   359.52 0.2250 0.2250   382.74 0.2500
 -20.38   358.92 0.2250 0.2250   381.54 0.2500
 -19.02   358.36 0.2250 0.2250   380.41 0.2500
 -17.66   357.82 0.2250 0.2250   379.35 0.2500
 -16.31   357.32 0.2250 0.2250   378.35 0.2500
 -14.98   356.86 0.2250 0.2250   377.42 0.2500
 -13.65   356.43 0.2250 0.2250   376.56 0.2500
 -12.33   356.04 0.2250 0.2250   375.77 0.2500
 -11.01   355.68 0.2250 0.2250   375.06 0.2500
  -9.70   355.36 0.2250 0.2250   374.42 0.2500
  -8.40   355.08 0.2250 0.2250   373.86 0.2500
  -7.10   354.84 0.2250 0.2250   373.37 0.2500
  -5.80   354.64 0.2250 0.2250   372.97 0.2500
  -4.51   354.48 0.2250 0.2250   372.65 0.2500
  -3.22   354.35 0.2250 0.2250   372.41 0.2500
  -1.93   354.27 0.2250 0.2250   372.25 0.2500
  -0.64   354.23 0.2250 0.2250   372.17 0.2500
   0.64   354.23 0.2250 0.2250   372.17 0.2500
   1.93   354.27 0.2250 0.2250   372.25 0.2500
   3.22   354.35 0.2250 0.2250   372.41 0.2500
   4.51   354.48 0.2250 0.2250   372.65 0.2500
   5.80   354.64 0.2250 0.2250   372.97 0.2500
   7.10   354.84 0.2250 0.2250   373.37 0.2500
   8.40   355.08 0.2250 0.2250   373.86 0.2500
   9.70   355.36 0.2250 0.2250   374.42 0.2500
  11.01   355.68 0.2250 0.2250   375.06 0.2500
  12.33   356.04 0.2250 0.2250   375.77 0.2500
  13.65   356.43 0.2250 0.2250   376.56 0.2500
  14.98   356.86 0.2250 0.2250   377.42 0.2500
  16.31   357.32 0.2250 0.2250   378.35 0.2500
  17.66   357.82 0.2250 0.2250   379.35 0.2500
  19.02   358.36 0.2250 0.2250   380.41 0.2500
  20.38   358.92 0.2250 0.2250   381.54 0.2500
  21.76   359.52 0.2250 0.2250   382.74 0.2500
  23.16   360.15 0.2250 0.2250   384.01 0.2500
  24.57   360.82 0.2250 0.2250   385.34 0.2500
  25.99   361.52 0.2250 0.2250   386.73 0.2500
  27.43   362.25 0.2250 0.2250   388.20 0.2500
  28.89   363.01 0.2250 0.2250   389.73 0.2500
  30.37   363.81 0.2250 0.2250   391.32 0.2500
  31.88   364.64 0.2250 0.2250   392.98 0.2500
  33.41   365.50 0.2250 0.2250   394.71 0.2500
  34.96   366.40 0.2250 0.2250   396.49 0.2500
  36.55   367.31 0.2250 0.2250   398.33 0.2500
  38.17   368.26 0.2250 0.2250   400.22 0.2500
  39.83   369.23 0.2250 0.2250   402.16 0.2500
  41.52   370.22 0.2250 0.2250   404.14 0.2500
  43.27   371.24 0.2250 0.2250   406.17 0.2500
  45.06   372.27 0.2250 0.2250   408.24 0.2500
  46.91   373.33 0.2250 0.2250   410.36 0.2500
  48.83   374.41 0.2250 0.2250   412.52 0.2500
  50.83   375.51 0.2250 0.2250   414.72 0.2500
  52.92   376.63 0.2250 0.2250   416.97 0.2500
  55.11   377.79 0.2250 0.2250   419.27 0.2500
  57.43   378.97 0.2250 0.2250   421.64 0.2500
  59.90   380.19 0.2250 0.2250   424.07 0.2500
  62.58   381.45 0.2250 0.2250   426.59 0.2500
  65.52   382.74 0.2250 0.2250   429.19 0.2500
  68.84   384.08 0.2250 0.2250   431.87 0.2500
  72.76   385.47 0.2250 0.2250   434.64 0.2500
  77.83   386.95 0.2250 0.2250   437.59 0.2500
  90.00   388.89 0.2250 0.2250   441.49 0.2500
