# Name of benchmark/experiment: FILLET Experiment 2 (cold start)
# Case number: 107
# Instellation (S_earth): 1.35
# XCO2 (ppm): 280.0
# Obliquity (degrees): 50.0
# Mode: seasonal
#
# Columns of data (annually averaged for last orbit)
# Lat Tsurf Asurf ATOA OLR Fland
 -90.00   257.79 0.6000 0.6000   179.28 0.2500
 -77.83   257.98 0.6000 0.6000   179.66 0.2500
 -72.76   258.05 0.6000 0.6000   179.80 0.2500
 -68.84   258.10 0.6000 0.6000   179.90 0.2500
 -65.52   258.15 0.6000 0.6000   180.00 0.2500
 -62.58   258.21 0.6000 0.6000   180.13 0.2500
 -59.90   258.28 0.6000 0.6000   180.26 0.2500
 -57.43   258.36 0.6000 0.6000   180.41 0.2500
 -55.11   258.43 0.6000 0.6000   180.57 0.2500
 -52.92   258.52 0.6000 0.6000   180.73 0.2500
 -50.83   258.60 0.6000 0.6000   180.91 0.2500
 -48.83   258.70 0.6000 0.6000   181.09 0.2500
 -46.91   258.80 0.6000 0.6000   181.29 0.2500
 -45.06   258.90 0.6000 0.6000   181.50 0.2500
 -43.27   259.01 0.6000 0.6000   181.73 0.2500
 -41.52   259.13 0.6000 0.6000   181.96 0.2500
 -39.83   259.25 0.6000 0.6000   182.21 0.2500
 -38.17   259.38 0.6000 0.6000   182.46 0.2500
 -36.55   259.51 0.6000 0.6000   182.72 0.2500
 -34.96   259.64 0.6000 0.6000   182.98 0.2500
 -33.41   259.77 0.6000 0.6000   183.25 0.2500
 -31.88   259.90 0.6000 0.6000   183.51 0.2500
 -30.37   260.04 0.6000 0.6000   183.77 0.2500
 -28.89   260.16 0.6000 0.6000   184.03 0.2500
 -27.43   260.29 0.6000 0.6000   184.28 0.2500
 -25.99   260.42 0.6000 0.6000   184.53 0.2500
 -24.57   260.54 0.6000 0.6000   184.77 0.2500
 -23.16   260.65 0.6000 0.6000   185.00 0.2500
 -21.76   260.76 0.6000 0.6000   185.23 0.2500
 -20.38   260.87 0.6000 0.6000   185.44 0.2500
 -19.02   260.97 0.6000 0.6000   185.64 0.2500
 -17.66   261.07 0.6000 0.6000   185.84 0.2500
 -16.31   261.16 0.6000 0.6000   186.02 0.2500
 -14.98   261.24 0.6000 0.6000   186.18 0.2500
 -13.65   261.32 0.6000 0.6000   186.34 0.2500
 -12.33   261.39 0.6000 0.6000   186.48 0.2500
 -11.01   261.46 0.6000 0.6000   186.61 0.2500
  -9.70   261.51 0.6000 0.6000   186.73 0.2500
  -8.40   261.56 0.6000 0.6000   186.83 0.2500
  -7.10   261.61 0.6000 0.6000   186.92 0.2500
  -5.80   261.64 0.6000 0.6000   186.99 0.2500
  -4.51   261.67 0.6000 0.6000   187.05 0.2500
  -3.22   261.70 0.6000 0.6000   187.09 0.2500
  -1.93   261.71 0.6000 0.6000   187.12 0.2500
  -0.64   261.72 0.6000 0.6000   187.14 0.2500
   0.64   261.72 0.6000 0.6000   187.14 0.2500
   1.93   261.71 0.6000 0.6000   187.12 0.2500
   3.22   261.70 0.6000 0.6000   187.09 0.2500
   4.51   261.67 0.6000 0.6000   187.05 0.2500
   5.80   261.64 0.6000 0.6000   186.99 0.2500
   7.10   261.61 0.6000 0.6000   186.92 0.2500
   8.40   261.56 0.6000 0.6000   186.83 0.2500
   9.70   261.51 0.6000 0.6000   186.73 0.2500
  11.01   261.46 0.6000 0.6000   186.61 0.2500
  12.33   261.39 0.6000 0.6000   186.48 0.2500
  13.65   261.32 0.6000 0.6000   186.34 0.2500
  14.98   261.24 0.6000 0.6000   186.18 0.2500
  16.31   261.16 0.6000 0.6000   186.02 0.2500
  17.66   261.07 0.6000 0.6000   185.84 0.2500
  19.02   260.97 0.6000 0.6000   185.64 0.2500
  20.38   260.87 0.6000 0.6000   185.44 0.2500
  21.76   260.76 0.6000 0.6000   185.23 0.2500
  23.16   260.65 0.6000 0.6000   185.00 0.2500
  24.57   260.54 0.6000 0.6000   184.77 0.2500
  25.99   260.42 0.6000 0.6000   184.53 0.2500
  27.43   260.29 0.6000 0.6000   184.28 0.2500
  28.89   260.16 0.6000 0.6000   184.03 0.2500
  30.37   260.04 0.6000 0.6000   183.77 0.2500
  31.88   259.90 0.6000 0.6000   183.51 0.2500
  33.41   259.77 0.6000 0.6000   183.25 0.2500
  34.96   259.64 0.6000 0.6000   182.98 0.2500
  36.55   259.51 0.6000 0.6000   182.72 0.2500
  38.17   259.38 0.6000 0.6000   182.46 0.2500
  39.83   259.25 0.6000 0.6000   182.21 0.2500
  41.52   259.13 0.6000 0.6000   181.96 0.2500
  43.27   259.01 0.6000 0.6000   181.73 0.2500
  45.06   258.90 0.6000 0.6000   181.50 0.2500
  46.91   258.80 0.6000 0.6000   181.29 0.2500
  48.83   258.70 0.6000 0.6000   181.09 0.2500
  50.83   258.60 0.6000 0.6000   180.91 0.2500
  52.92   258.52 0.6000 0.6000   180.73 0.2500
  55.11   258.43 0.6000 0.6000   180.57 0.2500
  57.43   258.36 0.6000 0.6000   180.41 0.2500
  59.90   258.28 0.6000 0.6000   180.26 0.2500
  62.58   258.21 0.6000 0.6000   180.13 0.2500
  65.52   258.15 0.6000 0.6000   180.00 0.2500
  68.84   258.10 0.6000 0.6000   179.90 0.2500
  72.76   258.05 0.6000 0.6000   179.80 0.2500
  77.83   257.98 0.6000 0.6000   179.66 0.2500
  90.00   257.79 0.6000 0.6000   179.28 0.2500
