# Name of benchmark/experiment: FILLET Experiment 2 (cold start)
# Case number: 147
# Instellation (S_earth): 1.4
# XCO2 (ppm): 280.0
# Obliquity (degrees): 70.0
# Mode: seasonal
#
# Columns of data (annually averaged for last orbit)
# Lat Tsurf Asurf ATOA OLR Fland
 -90.00   368.65 0.2250 0.2250   401.00 0.2500
 -77.83   367.27 0.2250 0.2250   398.23 0.2500
 -72.76   366.19 0.2250 0.2250   396.08 0.2500
 -68.84   365.17 0.2250 0.2250   394.04 0.2500
 -65.52   364.19 0.2250 0.2250   392.08 0.2500
 -62.58   363.24 0.2250 0.2250   390.19 0.2500
 -59.90   362.34 0.2250 0.2250   388.37 0.2500
 -57.43   361.46 0.2250 0.2250   386.62 0.2500
 -55.11   360.61 0.2250 0.2250   384.93 0.2500
 -52.92   359.79 0.2250 0.2250   383.28 0.2500
 -50.83   358.99 0.2250 0.2250   381.68 0.2500
 -48.83   358.21 0.2250 0.2250   380.12 0.2500
 -46.91   357.45 0.2250 0.2250   378.60 0.2500
 -45.06   356.70 0.2250 0.2250   377.11 0.2500
 -43.27   355.98 0.2250 0.2250   375.66 0.2500
 -41.52   355.27 0.2250 0.2250   374.25 0.2500
 -39.83   354.59 0.2250 0.2250   372.88 0.2500
 -38.17   353.93 0.2250 0.2250   371.55 0.2500
 -36.55   353.29 0.2250 0.2250   370.28 0.2500
 -34.96   352.67 0.2250 0.2250   369.05 0.2500
 -33.41   352.09 0.2250 0.2250   367.87 0.2500
 -31.88   351.52 0.2250 0.2250   366.75 0.2500
 -30.37   350.99 0.2250 0.2250   365.68 0.2500
 -28.89   350.48 0.2250 0.2250   364.66 0.2500
 -27.43   350.00 0.2250 0.2250   363.69 0.2500
 -25.99   349.54 0.2250 0.2250   362.78 0.2500
 -24.57   349.11 0.2250 0.2250   361.91 0.2500
 -23.16   348.70 0.2250 0.2250   361.10 0.2500
 -21.76   348.32 0.2250 0.2250   360.33 0.2500
 -20.38   347.96 0.2250 0.2250   359.62 0.2500
 -19.02   347.63 0.2250 0.2250   358.95 0.2500
 -17.66   347.32 0.2250 0.2250   358.34 0.2500
 -16.31   347.03 0.2250 0.2250   357.77 0.2500
 -14.98   346.78 0.2250 0.2250   357.25 0.2500
 -13.65   346.54 0.2250 0.2250   356.78 0.2500
 -12.33   346.33 0.2250 0.2250   356.36 0.2500
 -11.01   346.14 0.2250 0.2250   355.98 0.2500
  -9.70   345.97 0.2250 0.2250   355.65 0.2500
  -8.40   345.83 0.2250 0.2250   355.36 0.2500
  -7.10   345.71 0.2250 0.2250   355.11 0.2500
  -5.80   345.60 0.2250 0.2250   354.91 0.2500
  -4.51   345.52 0.2250 0.2250   354.75 0.2500
  -3.22   345.46 0.2250 0.2250   354.62 0.2500
  -1.93   345.42 0.2250 0.2250   354.54 0.2500
  -0.64   345.40 0.2250 0.2250   354.50 0.2500
   0.64   345.40 0.2250 0.2250   354.50 0.2500
   1.93   345.42 0.2250 0.2250   354.54 0.2500
   3.22   345.46 0.2250 0.2250   354.62 0.2500
   4.51   345.52 0.2250 0.2250   354.75 0.2500
   5.80   345.60 0.2250 0.2250   354.91 0.2500
   7.10   345.71 0.2250 0.2250   355.11 0.2500
   8.40   345.83 0.2250 0.2250   355.36 0.2500
   9.70   345.97 0.2250 0.2250   355.65 0.2500
  11.01   346.14 0.2250 0.2250   355.98 0.2500
  12.33   346.33 0.2250 0.2250   356.36 0.2500
  13.65   346.54 0.2250 0.2250   356.78 0.2500
  14.98   346.78 0.2250 0.2250   357.25 0.2500
  16.31   347.03 0.2250 0.2250   357.77 0.2500
  17.66   347.32 0.2250 0.2250   358.34 0.2500
  19.02   347.63 0.2250 0.2250   358.95 0.2500
  20.38   347.96 0.2250 0.2250   359.62 0.2500
  21.76   348.32 0.2250 0.2250   360.33 0.2500
  23.16   348.70 0.2250 0.2250   361.10 0.2500
  24.57   349.11 0.2250 0.2250   361.91 0.2500
  25.99   349.54 0.2250 0.2250   362.78 0.2500
  27.43   350.00 0.2250 0.2250   363.69 0.2500
  28.89   350.48 0.2250 0.2250   364.66 0.2500
  30.37   350.99 0.2250 0.2250   365.68 0.2500
  31.88   351.52 0.2250 0.2250   366.75 0.2500
  33.41   352.09 0.2250 0.2250   367.87 0.2500
  34.96   352.67 0.2250 0.2250   369.05 0.2500
  36.55   353.29 0.2250 0.2250   370.28 0.2500
  38.17   353.93 0.2250 0.2250   371.55 0.2500
  39.83   354.59 0.2250 0.2250   372.88 0.2500
  41.52   355.27 0.2250 0.2250   374.25 0.2500
  43.27   355.98 0.2250 0.2250   375.66 0.2500
  45.06   356.70 0.2250 0.2250   377.11 0.2500
  46.91   357.45 0.2250 0.2250   378.60 0.2500
  48.83   358.21 0.2250 0.2250   380.12 0.2500
  50.83   358.99 0.2250 0.2250   381.68 0.2500
  52.92   359.79 0.2250 0.2250   383.28 0.2500
  55.11   360.61 0.2250 0.2250   384.93 0.2500
  57.43   361.46 0.2250 0.2250   386.62 0.2500
  59.90   362.34 0.2250 0.2250   388.37 0.2500
  62.58   363.24 0.2250 0.2250   390.19 0.2500
  65.52   364.19 0.2250 0.2250   392.08 0.2500
  68.84   365.17 0.2250 0.2250   394.04 0.2500
  72.76   366.19 0.2250 0.2250   396.08 0.2500
  77.83   367.27 0.2250 0.2250   398.23 0.2500
  90.00   368.65 0.2250 0.2250   401.00 0.2500
