# Name of benchmark/experiment: FILLET Experiment 2 (cold start)
# Case number: 5
# Instellation (S_earth): 1.175
# XCO2 (ppm): 280.0
# Obliquity (degrees): 0.0
# Mode: seasonal
#
# Columns of data (annually averaged for last orbit)
# Lat Tsurf Asurf ATOA OLR Fland
 -90.00   220.01 0.6000 0.6000   103.73 0.2500
 -77.83   224.70 0.6000 0.6000   113.10 0.2500
 -72.76   227.35 0.6000 0.6000   118.40 0.2500
 -68.84   229.50 0.6000 0.6000   122.70 0.2500
 -65.52   231.38 0.6000 0.6000   126.45 0.2500
 -62.58   233.08 0.6000 0.6000   129.85 0.2500
 -59.90   234.64 0.6000 0.6000   132.98 0.2500
 -57.43   236.10 0.6000 0.6000   135.89 0.2500
 -55.11   237.46 0.6000 0.6000   138.62 0.2500
 -52.92   238.74 0.6000 0.6000   141.18 0.2500
 -50.83   239.95 0.6000 0.6000   143.60 0.2500
 -48.83   241.10 0.6000 0.6000   145.90 0.2500
 -46.91   242.18 0.6000 0.6000   148.07 0.2500
 -45.06   243.21 0.6000 0.6000   150.13 0.2500
 -43.27   244.19 0.6000 0.6000   152.09 0.2500
 -41.52   245.13 0.6000 0.6000   153.95 0.2500
 -39.83   246.01 0.6000 0.6000   155.72 0.2500
 -38.17   246.85 0.6000 0.6000   157.41 0.2500
 -36.55   247.65 0.6000 0.6000   159.01 0.2500
 -34.96   248.42 0.6000 0.6000   160.53 0.2500
 -33.41   249.14 0.6000 0.6000   161.98 0.2500
 -31.88   249.83 0.6000 0.6000   163.35 0.2500
 -30.37   250.48 0.6000 0.6000   164.66 0.2500
 -28.89   251.10 0.6000 0.6000   165.89 0.2500
 -27.43   251.68 0.6000 0.6000   167.06 0.2500
 -25.99   252.23 0.6000 0.6000   168.16 0.2500
 -24.57   252.75 0.6000 0.6000   169.20 0.2500
 -23.16   253.24 0.6000 0.6000   170.18 0.2500
 -21.76   253.70 0.6000 0.6000   171.10 0.2500
 -20.38   254.13 0.6000 0.6000   171.95 0.2500
 -19.02   254.53 0.6000 0.6000   172.75 0.2500
 -17.66   254.90 0.6000 0.6000   173.50 0.2500
 -16.31   255.24 0.6000 0.6000   174.18 0.2500
 -14.98   255.56 0.6000 0.6000   174.81 0.2500
 -13.65   255.84 0.6000 0.6000   175.39 0.2500
 -12.33   256.10 0.6000 0.6000   175.91 0.2500
 -11.01   256.34 0.6000 0.6000   176.38 0.2500
  -9.70   256.55 0.6000 0.6000   176.79 0.2500
  -8.40   256.73 0.6000 0.6000   177.15 0.2500
  -7.10   256.88 0.6000 0.6000   177.46 0.2500
  -5.80   257.01 0.6000 0.6000   177.72 0.2500
  -4.51   257.11 0.6000 0.6000   177.93 0.2500
  -3.22   257.19 0.6000 0.6000   178.08 0.2500
  -1.93   257.24 0.6000 0.6000   178.18 0.2500
  -0.64   257.27 0.6000 0.6000   178.23 0.2500
   0.64   257.27 0.6000 0.6000   178.23 0.2500
   1.93   257.24 0.6000 0.6000   178.18 0.2500
   3.22   257.19 0.6000 0.6000   178.08 0.2500
   4.51   257.11 0.6000 0.6000   177.93 0.2500
   5.80   257.01 0.6000 0.6000   177.72 0.2500
   7.10   256.88 0.6000 0.6000   177.46 0.2500
   8.40   256.73 0.6000 0.6000   177.15 0.2500
   9.70   256.55 0.6000 0.6000   176.79 0.2500
  11.01   256.34 0.6000 0.6000   176.38 0.2500
  12.33   256.10 0.6000 0.6000   175.91 0.2500
  13.65   255.84 0.6000 0.6000   175.39 0.2500
  14.98   255.56 0.6000 0.6000   174.81 0.2500
  16.31   255.24 0.6000 0.6000   174.18 0.2500
  17.66   254.90 0.6000 0.6000   173.50 0.2500
  19.02   254.53 0.6000 0.6000   172.75 0.2500
  20.38   254.13 0.6000 0.6000   171.95 0.2500
  21.76   253.70 0.6000 0.6000   171.10 0.2500
  23.16   253.24 0.6000 0.6000   170.18 0.2500
  24.57   252.75 0.6000 0.6000   169.20 0.2500
  25.99   252.23 0.6000 0.6000   168.16 0.2500
  27.43   251.68 0.6000 0.6000   167.06 0.2500
  28.89   251.10 0.6000 0.6000   165.89 0.2500
  30.37   250.48 0.6000 0.6000   164.66 0.2500
  31.88   249.83 0.6000 0.6000   163.35 0.2500
  33.41   249.14 0.6000 0.6000   161.98 0.2500
  34.96   248.42 0.6000 0.6000   160.53 0.2500
  36.55   247.65 0.6000 0.6000   159.01 0.2500
  38.17   246.85 0.6000 0.6000   157.41 0.2500
  39.83   246.01 0.6000 0.6000   155.72 0.2500
  41.52   245.13 0.6000 0.6000   153.95 0.2500
  43.27   244.19 0.6000 0.6000   152.09 0.2500
  45.06   243.21 0.6000 0.6000   150.13 0.2500
  46.91   242.18 0.6000 0.6000   148.07 0.2500
  48.83   241.10 0.6000 0.6000   145.90 0.2500
  50.83   239.95 0.6000 0.6000   143.60 0.2500
  52.92   238.74 0.6000 0.6000   141.18 0.2500
  55.11   237.46 0.6000 0.6000   138.62 0.2500
  57.43   236.10 0.6000 0.6000   135.89 0.2500
  59.90   234.64 0.6000 0.6000   132.98 0.2500
  62.58   233.08 0.6000 0.6000   129.85 0.2500
  65.52   231.38 0.6000 0.6000   126.45 0.2500
  68.84   229.50 0.6000 0.6000   122.70 0.2500
  72.76   227.35 0.6000 0.6000   118.40 0.2500
  77.83   224.70 0.6000 0.6000   113.10 0.2500
  90.00   220.01 0.6000 0.6000   103.73 0.2500
