# Name of benchmark/experiment: FILLET Experiment 2 (cold start)
# Case number: 69
# Instellation (S_earth): 1.35
# XCO2 (ppm): 280.0
# Obliquity (degrees): 30.0
# Mode: seasonal
#
# Columns of data (annually averaged for last orbit)
# Lat Tsurf Asurf ATOA OLR Fland
 -90.00   315.17 0.2250 0.2250   294.04 0.2500
 -77.83   318.45 0.2250 0.2250   300.60 0.2500
 -72.76   320.60 0.2250 0.2250   304.90 0.2500
 -68.84   322.53 0.2250 0.2250   308.76 0.2500
 -65.52   324.37 0.2250 0.2250   312.43 0.2500
 -62.58   326.14 0.2250 0.2250   315.98 0.2500
 -59.90   327.87 0.2250 0.2250   319.44 0.2500
 -57.43   329.56 0.2250 0.2250   322.82 0.2500
 -55.11   331.21 0.2250 0.2250   326.12 0.2500
 -52.92   332.81 0.2250 0.2250   329.33 0.2500
 -50.83   334.37 0.2250 0.2250   332.45 0.2500
 -48.83   335.88 0.2250 0.2250   335.47 0.2500
 -46.91   337.34 0.2250 0.2250   338.39 0.2500
 -45.06   338.76 0.2250 0.2250   341.21 0.2500
 -43.27   340.12 0.2250 0.2250   343.94 0.2500
 -41.52   341.43 0.2250 0.2250   346.56 0.2500
 -39.83   342.70 0.2250 0.2250   349.09 0.2500
 -38.17   343.91 0.2250 0.2250   351.52 0.2500
 -36.55   345.08 0.2250 0.2250   353.85 0.2500
 -34.96   346.20 0.2250 0.2250   356.09 0.2500
 -33.41   347.27 0.2250 0.2250   358.23 0.2500
 -31.88   348.29 0.2250 0.2250   360.28 0.2500
 -30.37   349.27 0.2250 0.2250   362.24 0.2500
 -28.89   350.20 0.2250 0.2250   364.10 0.2500
 -27.43   351.09 0.2250 0.2250   365.87 0.2500
 -25.99   351.93 0.2250 0.2250   367.55 0.2500
 -24.57   352.72 0.2250 0.2250   369.15 0.2500
 -23.16   353.47 0.2250 0.2250   370.65 0.2500
 -21.76   354.18 0.2250 0.2250   372.06 0.2500
 -20.38   354.85 0.2250 0.2250   373.39 0.2500
 -19.02   355.47 0.2250 0.2250   374.64 0.2500
 -17.66   356.05 0.2250 0.2250   375.79 0.2500
 -16.31   356.58 0.2250 0.2250   376.86 0.2500
 -14.98   357.07 0.2250 0.2250   377.85 0.2500
 -13.65   357.53 0.2250 0.2250   378.75 0.2500
 -12.33   357.94 0.2250 0.2250   379.57 0.2500
 -11.01   358.30 0.2250 0.2250   380.31 0.2500
  -9.70   358.63 0.2250 0.2250   380.96 0.2500
  -8.40   358.92 0.2250 0.2250   381.53 0.2500
  -7.10   359.16 0.2250 0.2250   382.02 0.2500
  -5.80   359.36 0.2250 0.2250   382.43 0.2500
  -4.51   359.53 0.2250 0.2250   382.75 0.2500
  -3.22   359.65 0.2250 0.2250   382.99 0.2500
  -1.93   359.73 0.2250 0.2250   383.16 0.2500
  -0.64   359.77 0.2250 0.2250   383.24 0.2500
   0.64   359.77 0.2250 0.2250   383.24 0.2500
   1.93   359.73 0.2250 0.2250   383.16 0.2500
   3.22   359.65 0.2250 0.2250   382.99 0.2500
   4.51   359.53 0.2250 0.2250   382.75 0.2500
   5.80   359.36 0.2250 0.2250   382.43 0.2500
   7.10   359.16 0.2250 0.2250   382.02 0.2500
   8.40   358.92 0.2250 0.2250   381.53 0.2500
   9.70   358.63 0.2250 0.2250   380.96 0.2500
  11.01   358.30 0.2250 0.2250   380.31 0.2500
  12.33   357.94 0.2250 0.2250   379.57 0.2500
  13.65   357.53 0.2250 0.2250   378.75 0.2500
  14.98   357.07 0.2250 0.2250   377.85 0.2500
  16.31   356.58 0.2250 0.2250   376.86 0.2500
  17.66   356.05 0.2250 0.2250   375.79 0.2500
  19.02   355.47 0.2250 0.2250   374.64 0.2500
  20.38   354.85 0.2250 0.2250   373.39 0.2500
  21.76   354.18 0.2250 0.2250   372.06 0.2500
  23.16   353.47 0.2250 0.2250   370.65 0.2500
  24.57   352.72 0.2250 0.2250   369.15 0.2500
  25.99   351.93 0.2250 0.2250   367.55 0.2500
  27.43   351.09 0.2250 0.2250   365.87 0.2500
  28.89   350.20 0.2250 0.2250   364.10 0.2500
  30.37   349.27 0.2250 0.2250   362.24 0.2500
  31.88   348.29 0.2250 0.2250   360.28 0.2500
  33.41   347.27 0.2250 0.2250   358.23 0.2500
  34.96   346.20 0.2250 0.2250   356.09 0.2500
  36.55   345.08 0.2250 0.2250   353.85 0.2500
  38.17   343.91 0.2250 0.2250   351.52 0.2500
  39.83   342.70 0.2250 0.2250   349.09 0.2500
  41.52   341.43 0.2250 0.2250   346.56 0.2500
  43.27   340.12 0.2250 0.2250   343.94 0.2500
  45.06   338.76 0.2250 0.2250   341.21 0.2500
  46.91   337.34 0.2250 0.2250   338.39 0.2500
  48.83   335.88 0.2250 0.2250   335.47 0.2500
  50.83   334.37 0.2250 0.2250   332.45 0.2500
  52.92   332.81 0.2250 0.2250   329.33 0.2500
  55.11   331.21 0.2250 0.2250   326.12 0.2500
  57.43   329.56 0.2250 0.2250   322.82 0.2500
  59.90   327.87 0.2250 0.2250   319.44 0.2500
  62.58   326.14 0.2250 0.2250   315.98 0.2500
  65.52   324.37 0.2250 0.2250   312.43 0.2500
  68.84   322.53 0.2250 0.2250   308.76 0.2500
  72.76   320.60 0.2250 0.2250   304.90 0.2500
  77.83   318.45 0.2250 0.2250   300.60 0.2500
  90.00   315.17 0.2250 0.2250   294.04 0.2500
