# Name of benchmark/experiment: FILLET Experiment 2 (cold start)
# Case number: 12
# Instellation (S_earth): 1.35
# XCO2 (ppm): 280.0
# Obliquity (degrees): 0.0
# Mode: seasonal
#
# Columns of data (annually averaged for last orbit)
# Lat Tsurf Asurf ATOA OLR Fland
 -90.00   283.60 0.2250 0.2250   230.91 0.2500
 -77.83   294.04 0.2250 0.2250   251.78 0.2500
 -72.76   299.94 0.2250 0.2250   263.58 0.2500
 -68.84   304.71 0.2250 0.2250   273.13 0.2500
 -65.52   308.90 0.2250 0.2250   281.49 0.2500
 -62.58   312.68 0.2250 0.2250   289.06 0.2500
 -59.90   316.17 0.2250 0.2250   296.03 0.2500
 -57.43   319.41 0.2250 0.2250   302.51 0.2500
 -55.11   322.44 0.2250 0.2250   308.58 0.2500
 -52.92   325.29 0.2250 0.2250   314.29 0.2500
 -50.83   327.99 0.2250 0.2250   319.67 0.2500
 -48.83   330.54 0.2250 0.2250   324.77 0.2500
 -46.91   332.95 0.2250 0.2250   329.61 0.2500
 -45.06   335.25 0.2250 0.2250   334.20 0.2500
 -43.27   337.43 0.2250 0.2250   338.56 0.2500
 -41.52   339.50 0.2250 0.2250   342.70 0.2500
 -39.83   341.47 0.2250 0.2250   346.65 0.2500
 -38.17   343.35 0.2250 0.2250   350.40 0.2500
 -36.55   345.13 0.2250 0.2250   353.97 0.2500
 -34.96   346.83 0.2250 0.2250   357.36 0.2500
 -33.41   348.44 0.2250 0.2250   360.58 0.2500
 -31.88   349.97 0.2250 0.2250   363.64 0.2500
 -30.37   351.42 0.2250 0.2250   366.54 0.2500
 -28.89   352.79 0.2250 0.2250   369.28 0.2500
 -27.43   354.09 0.2250 0.2250   371.88 0.2500
 -25.99   355.32 0.2250 0.2250   374.34 0.2500
 -24.57   356.48 0.2250 0.2250   376.65 0.2500
 -23.16   357.56 0.2250 0.2250   378.83 0.2500
 -21.76   358.59 0.2250 0.2250   380.87 0.2500
 -20.38   359.54 0.2250 0.2250   382.78 0.2500
 -19.02   360.43 0.2250 0.2250   384.56 0.2500
 -17.66   361.26 0.2250 0.2250   386.21 0.2500
 -16.31   362.02 0.2250 0.2250   387.74 0.2500
 -14.98   362.72 0.2250 0.2250   389.14 0.2500
 -13.65   363.36 0.2250 0.2250   390.43 0.2500
 -12.33   363.94 0.2250 0.2250   391.59 0.2500
 -11.01   364.46 0.2250 0.2250   392.63 0.2500
  -9.70   364.93 0.2250 0.2250   393.55 0.2500
  -8.40   365.33 0.2250 0.2250   394.36 0.2500
  -7.10   365.67 0.2250 0.2250   395.04 0.2500
  -5.80   365.96 0.2250 0.2250   395.62 0.2500
  -4.51   366.19 0.2250 0.2250   396.07 0.2500
  -3.22   366.36 0.2250 0.2250   396.42 0.2500
  -1.93   366.47 0.2250 0.2250   396.65 0.2500
  -0.64   366.53 0.2250 0.2250   396.76 0.2500
   0.64   366.53 0.2250 0.2250   396.76 0.2500
   1.93   366.47 0.2250 0.2250   396.65 0.2500
   3.22   366.36 0.2250 0.2250   396.42 0.2500
   4.51   366.19 0.2250 0.2250   396.07 0.2500
   5.80   365.96 0.2250 0.2250   395.62 0.2500
   7.10   365.67 0.2250 0.2250   395.04 0.2500
   8.40   365.33 0.2250 0.2250   394.36 0.2500
   9.70   364.93 0.2250 0.2250   393.55 0.2500
  11.01   364.46 0.2250 0.2250   392.63 0.2500
  12.33   363.94 0.2250 0.2250   391.59 0.2500
  13.65   363.36 0.2250 0.2250   390.43 0.2500
  14.98   362.72 0.2250 0.2250   389.14 0.2500
  16.31   362.02 0.2250 0.2250   387.74 0.2500
  17.66   361.26 0.2250 0.2250   386.21 0.2500
  19.02   360.43 0.2250 0.2250   384.56 0.2500
  20.38   359.54 0.2250 0.2250   382.78 0.2500
  21.76   358.59 0.2250 0.2250   380.87 0.2500
  23.16   357.56 0.2250 0.2250   378.83 0.2500
  24.57   356.48 0.2250 0.2250   376.65 0.2500
  25.99   355.32 0.2250 0.2250   374.34 0.2500
  27.43   354.09 0.2250 0.2250   371.88 0.2500
  28.89   352.79 0.2250 0.2250   369.28 0.2500
  30.37   351.42 0.2250 0.2250   366.54 0.2500
  31.88   349.97 0.2250 0.2250   363.64 0.2500
  33.41   348.44 0.2250 0.2250   360.58 0.2500
  34.96   346.83 0.2250 0.2250   357.36 0.2500
  36.55   345.13 0.2250 0.2250   353.97 0.2500
  38.17   343.35 0.2250 0.2250   350.40 0.2500
  39.83   341.47 0.2250 0.2250   346.65 0.2500
  41.52   339.50 0.2250 0.2250   342.70 0.2500
  43.27   337.43 0.2250 0.2250   338.56 0.2500
  45.06   335.25 0.2250 0.2250   334.20 0.2500
  46.91   332.95 0.2250 0.2250   329.61 0.2500
  48.83   330.54 0.2250 0.2250   324.77 0.2500
  50.83   327.99 0.2250 0.2250   319.67 0.2500
  52.92   325.29 0.2250 0.2250   314.29 0.2500
  55.11   322.44 0.2250 0.2250   308.58 0.2500
  57.43   319.41 0.2250 0.2250   302.51 0.2500
  59.90   316.17 0.2250 0.2250   296.03 0.2500
  62.58   312.68 0.2250 0.2250   289.06 0.2500
  65.52   308.90 0.2250 0.2250   281.49 0.2500
  68.84   304.71 0.2250 0.2250   273.13 0.2500
  72.76   299.94 0.2250 0.2250   263.58 0.2500
  77.83   294.04 0.2250 0.2250   251.78 0.2500
  90.00   283.60 0.2250 0.2250   230.91 0.2500
