# Name of benchmark/experiment: FILLET Experiment 2 (cold start)
# Case number: 9
# Instellation (S_earth): 1.275
# XCO2 (ppm): 280.0
# Obliquity (degrees): 0.0
# Mode: seasonal
#
# Columns of data (annually averaged for last orbit)
# Lat Tsurf Asurf ATOA OLR Fland
 -90.00   277.19 0.2250 0.2250   218.08 0.2500
 -77.83   287.05 0.2250 0.2250   237.79 0.2500
 -72.76   292.62 0.2250 0.2250   248.93 0.2500
 -68.84   297.13 0.2250 0.2250   257.96 0.2500
 -65.52   301.08 0.2250 0.2250   265.86 0.2500
 -62.58   304.65 0.2250 0.2250   273.01 0.2500
 -59.90   307.94 0.2250 0.2250   279.59 0.2500
 -57.43   311.00 0.2250 0.2250   285.70 0.2500
 -55.11   313.87 0.2250 0.2250   291.43 0.2500
 -52.92   316.56 0.2250 0.2250   296.83 0.2500
 -50.83   319.11 0.2250 0.2250   301.91 0.2500
 -48.83   321.52 0.2250 0.2250   306.73 0.2500
 -46.91   323.80 0.2250 0.2250   311.30 0.2500
 -45.06   325.97 0.2250 0.2250   315.63 0.2500
 -43.27   328.02 0.2250 0.2250   319.75 0.2500
 -41.52   329.98 0.2250 0.2250   323.67 0.2500
 -39.83   331.84 0.2250 0.2250   327.39 0.2500
 -38.17   333.62 0.2250 0.2250   330.93 0.2500
 -36.55   335.30 0.2250 0.2250   334.30 0.2500
 -34.96   336.90 0.2250 0.2250   337.50 0.2500
 -33.41   338.42 0.2250 0.2250   340.55 0.2500
 -31.88   339.87 0.2250 0.2250   343.43 0.2500
 -30.37   341.24 0.2250 0.2250   346.17 0.2500
 -28.89   342.53 0.2250 0.2250   348.77 0.2500
 -27.43   343.76 0.2250 0.2250   351.22 0.2500
 -25.99   344.92 0.2250 0.2250   353.54 0.2500
 -24.57   346.01 0.2250 0.2250   355.73 0.2500
 -23.16   347.04 0.2250 0.2250   357.78 0.2500
 -21.76   348.01 0.2250 0.2250   359.71 0.2500
 -20.38   348.91 0.2250 0.2250   361.52 0.2500
 -19.02   349.75 0.2250 0.2250   363.20 0.2500
 -17.66   350.53 0.2250 0.2250   364.76 0.2500
 -16.31   351.25 0.2250 0.2250   366.20 0.2500
 -14.98   351.91 0.2250 0.2250   367.53 0.2500
 -13.65   352.52 0.2250 0.2250   368.74 0.2500
 -12.33   353.07 0.2250 0.2250   369.83 0.2500
 -11.01   353.56 0.2250 0.2250   370.81 0.2500
  -9.70   353.99 0.2250 0.2250   371.69 0.2500
  -8.40   354.37 0.2250 0.2250   372.45 0.2500
  -7.10   354.70 0.2250 0.2250   373.10 0.2500
  -5.80   354.97 0.2250 0.2250   373.64 0.2500
  -4.51   355.19 0.2250 0.2250   374.07 0.2500
  -3.22   355.35 0.2250 0.2250   374.39 0.2500
  -1.93   355.46 0.2250 0.2250   374.61 0.2500
  -0.64   355.51 0.2250 0.2250   374.72 0.2500
   0.64   355.51 0.2250 0.2250   374.72 0.2500
   1.93   355.46 0.2250 0.2250   374.61 0.2500
   3.22   355.35 0.2250 0.2250   374.39 0.2500
   4.51   355.19 0.2250 0.2250   374.07 0.2500
   5.80   354.97 0.2250 0.2250   373.64 0.2500
   7.10   354.70 0.2250 0.2250   373.10 0.2500
   8.40   354.37 0.2250 0.2250   372.45 0.2500
   9.70   353.99 0.2250 0.2250   371.69 0.2500
  11.01   353.56 0.2250 0.2250   370.81 0.2500
  12.33   353.07 0.2250 0.2250   369.83 0.2500
  13.65   352.52 0.2250 0.2250   368.74 0.2500
  14.98   351.91 0.2250 0.2250   367.53 0.2500
  16.31   351.25 0.2250 0.2250   366.20 0.2500
  17.66   350.53 0.2250 0.2250   364.76 0.2500
  19.02   349.75 0.2250 0.2250   363.20 0.2500
  20.38   348.91 0.2250 0.2250   361.52 0.2500
  21.76   348.01 0.2250 0.2250   359.71 0.2500
  23.16   347.04 0.2250 0.2250   357.78 0.2500
  24.57   346.01 0.2250 0.2250   355.73 0.2500
  25.99   344.92 0.2250 0.2250   353.54 0.2500
  27.43   343.76 0.2250 0.2250   351.22 0.2500
  28.89   342.53 0.2250 0.2250   348.77 0.2500
  30.37   341.24 0.2250 0.2250   346.17 0.2500
  31.88   339.87 0.2250 0.2250   343.43 0.2500
  33.41   338.42 0.2250 0.2250   340.55 0.2500
  34.96   336.90 0.2250 0.2250   337.50 0.2500
  36.55   335.30 0.2250 0.2250   334.30 0.2500
  38.17   333.62 0.2250 0.2250   330.93 0.2500
  39.83   331.84 0.2250 0.2250   327.39 0.2500
  41.52   329.98 0.2250 0.2250   323.67 0.2500
  43.27   328.02 0.2250 0.2250   319.75 0.2500
  45.06   325.97 0.2250 0.2250   315.63 0.2500
  46.91   323.80 0.2250 0.2250   311.30 0.2500
  48.83   321.52 0.2250 0.2250   306.73 0.2500
  50.83   319.11 0.2250 0.2250   301.91 0.2500
  52.92   316.56 0.2250 0.2250   296.83 0.2500
  55.11   313.87 0.2250 0.2250   291.43 0.2500
  57.43   311.00 0.2250 0.2250   285.70 0.2500
  59.90   307.94 0.2250 0.2250   279.59 0.2500
  62.58   304.65 0.2250 0.2250   273.01 0.2500
  65.52   301.08 0.2250 0.2250   265.86 0.2500
  68.84   297.13 0.2250 0.2250   257.96 0.2500
  72.76   292.62 0.2250 0.2250   248.93 0.2500
  77.83   287.05 0.2250 0.2250   237.79 0.2500
  90.00   277.19 0.2250 0.2250   218.08 0.2500
