# Name of benchmark/experiment: FILLET Experiment 2 (cold start)
# Case number: 169
# Instellation (S_earth): 1.475
# XCO2 (ppm): 280.0
# Obliquity (degrees): 80.0
# Mode: seasonal
#
# Columns of data (annually averaged for last orbit)
# Lat Tsurf Asurf ATOA OLR Fland
 -90.00   385.22 0.2250 0.2250   434.13 0.2500
 -77.83   383.30 0.2250 0.2250   430.30 0.2500
 -72.76   381.85 0.2250 0.2250   427.40 0.2500
 -68.84   380.48 0.2250 0.2250   424.67 0.2500
 -65.52   379.17 0.2250 0.2250   422.04 0.2500
 -62.58   377.89 0.2250 0.2250   419.48 0.2500
 -59.90   376.65 0.2250 0.2250   417.01 0.2500
 -57.43   375.46 0.2250 0.2250   414.61 0.2500
 -55.11   374.29 0.2250 0.2250   412.29 0.2500
 -52.92   373.16 0.2250 0.2250   410.02 0.2500
 -50.83   372.05 0.2250 0.2250   407.81 0.2500
 -48.83   370.97 0.2250 0.2250   405.64 0.2500
 -46.91   369.91 0.2250 0.2250   403.52 0.2500
 -45.06   368.87 0.2250 0.2250   401.44 0.2500
 -43.27   367.85 0.2250 0.2250   399.40 0.2500
 -41.52   366.85 0.2250 0.2250   397.41 0.2500
 -39.83   365.88 0.2250 0.2250   395.46 0.2500
 -38.17   364.92 0.2250 0.2250   393.55 0.2500
 -36.55   364.00 0.2250 0.2250   391.69 0.2500
 -34.96   363.09 0.2250 0.2250   389.88 0.2500
 -33.41   362.22 0.2250 0.2250   388.13 0.2500
 -31.88   361.37 0.2250 0.2250   386.43 0.2500
 -30.37   360.55 0.2250 0.2250   384.80 0.2500
 -28.89   359.77 0.2250 0.2250   383.23 0.2500
 -27.43   359.01 0.2250 0.2250   381.73 0.2500
 -25.99   358.29 0.2250 0.2250   380.29 0.2500
 -24.57   357.61 0.2250 0.2250   378.92 0.2500
 -23.16   356.95 0.2250 0.2250   377.61 0.2500
 -21.76   356.33 0.2250 0.2250   376.36 0.2500
 -20.38   355.74 0.2250 0.2250   375.18 0.2500
 -19.02   355.19 0.2250 0.2250   374.07 0.2500
 -17.66   354.66 0.2250 0.2250   373.02 0.2500
 -16.31   354.17 0.2250 0.2250   372.04 0.2500
 -14.98   353.71 0.2250 0.2250   371.13 0.2500
 -13.65   353.29 0.2250 0.2250   370.28 0.2500
 -12.33   352.90 0.2250 0.2250   369.51 0.2500
 -11.01   352.55 0.2250 0.2250   368.81 0.2500
  -9.70   352.24 0.2250 0.2250   368.18 0.2500
  -8.40   351.96 0.2250 0.2250   367.63 0.2500
  -7.10   351.73 0.2250 0.2250   367.15 0.2500
  -5.80   351.53 0.2250 0.2250   366.76 0.2500
  -4.51   351.37 0.2250 0.2250   366.44 0.2500
  -3.22   351.25 0.2250 0.2250   366.20 0.2500
  -1.93   351.17 0.2250 0.2250   366.04 0.2500
  -0.64   351.13 0.2250 0.2250   365.96 0.2500
   0.64   351.13 0.2250 0.2250   365.96 0.2500
   1.93   351.17 0.2250 0.2250   366.04 0.2500
   3.22   351.25 0.2250 0.2250   366.20 0.2500
   4.51   351.37 0.2250 0.2250   366.44 0.2500
   5.80   351.53 0.2250 0.2250   366.76 0.2500
   7.10   351.73 0.2250 0.2250   367.15 0.2500
   8.40   351.96 0.2250 0.2250   367.63 0.2500
   9.70   352.24 0.2250 0.2250   368.18 0.2500
  11.01   352.55 0.2250 0.2250   368.81 0.2500
  12.33   352.90 0.2250 0.2250   369.51 0.2500
  13.65   353.29 0.2250 0.2250   370.28 0.2500
  14.98   353.71 0.2250 0.2250   371.13 0.2500
  16.31   354.17 0.2250 0.2250   372.04 0.2500
  17.66   354.66 0.2250 0.2250   373.02 0.2500
  19.02   355.19 0.2250 0.2250   374.07 0.2500
  20.38   355.74 0.2250 0.2250   375.18 0.2500
  21.76   356.33 0.2250 0.2250   376.36 0.2500
  23.16   356.95 0.2250 0.2250   377.61 0.2500
  24.57   357.61 0.2250 0.2250   378.92 0.2500
  25.99   358.29 0.2250 0.2250   380.29 0.2500
  27.43   359.01 0.2250 0.2250   381.73 0.2500
  28.89   359.77 0.2250 0.2250   383.23 0.2500
  30.37   360.55 0.2250 0.2250   384.80 0.2500
  31.88   361.37 0.2250 0.2250   386.43 0.2500
  33.41   362.22 0.2250 0.2250   388.13 0.2500
  34.96   363.09 0.2250 0.2250   389.88 0.2500
  36.55   364.00 0.2250 0.2250   391.69 0.2500
  38.17   364.92 0.2250 0.2250   393.55 0.2500
  39.83   365.88 0.2250 0.2250   395.46 0.2500
  41.52   366.85 0.2250 0.2250   397.41 0.2500
  43.27   367.85 0.2250 0.2250   399.40 0.2500
  45.06   368.87 0.2250 0.2250   401.44 0.2500
  46.91   369.91 0.2250 0.2250   403.52 0.2500
  48.83   370.97 0.2250 0.2250   405.64 0.2500
  50.83   372.05 0.2250 0.2250   407.81 0.2500
  52.92   373.16 0.2250 0.2250   410.02 0.2500
  55.11   374.29 0.2250 0.2250   412.29 0.2500
  57.43   375.46 0.2250 0.2250   414.61 0.2500
  59.90   376.65 0.2250 0.2250   417.01 0.2500
  62.58   377.89 0.2250 0.2250   419.48 0.2500
  65.52   379.17 0.2250 0.2250   422.04 0.2500
  68.84   380.48 0.2250 0.2250   424.67 0.2500
  72.76   381.85 0.2250 0.2250   427.40 0.2500
  77.83   383.30 0.2250 0.2250   430.30 0.2500
  90.00   385.22 0.2250 0.2250   434.13 0.2500
