# Name of benchmark/experiment: FILLET Experiment 2 (cold start)
# Case number: 54
# Instellation (S_earth): 1.45
# XCO2 (ppm): 280.0
# Obliquity (degrees): 20.0
# Mode: seasonal
#
# Columns of data (annually averaged for last orbit)
# Lat Tsurf Asurf ATOA OLR Fland
 -90.00   311.98 0.2250 0.2250   287.67 0.2500
 -77.83   317.63 0.2250 0.2250   298.97 0.2500
 -72.76   321.37 0.2250 0.2250   306.44 0.2500
 -68.84   324.69 0.2250 0.2250   313.07 0.2500
 -65.52   327.78 0.2250 0.2250   319.25 0.2500
 -62.58   330.70 0.2250 0.2250   325.09 0.2500
 -59.90   333.47 0.2250 0.2250   330.63 0.2500
 -57.43   336.10 0.2250 0.2250   335.91 0.2500
 -55.11   338.62 0.2250 0.2250   340.94 0.2500
 -52.92   341.02 0.2250 0.2250   345.74 0.2500
 -50.83   343.32 0.2250 0.2250   350.33 0.2500
 -48.83   345.51 0.2250 0.2250   354.72 0.2500
 -46.91   347.61 0.2250 0.2250   358.92 0.2500
 -45.06   349.62 0.2250 0.2250   362.93 0.2500
 -43.27   351.54 0.2250 0.2250   366.77 0.2500
 -41.52   353.37 0.2250 0.2250   370.44 0.2500
 -39.83   355.13 0.2250 0.2250   373.95 0.2500
 -38.17   356.80 0.2250 0.2250   377.31 0.2500
 -36.55   358.40 0.2250 0.2250   380.51 0.2500
 -34.96   359.93 0.2250 0.2250   383.56 0.2500
 -33.41   361.39 0.2250 0.2250   386.48 0.2500
 -31.88   362.77 0.2250 0.2250   389.25 0.2500
 -30.37   364.09 0.2250 0.2250   391.89 0.2500
 -28.89   365.35 0.2250 0.2250   394.39 0.2500
 -27.43   366.53 0.2250 0.2250   396.77 0.2500
 -25.99   367.66 0.2250 0.2250   399.01 0.2500
 -24.57   368.72 0.2250 0.2250   401.13 0.2500
 -23.16   369.72 0.2250 0.2250   403.13 0.2500
 -21.76   370.66 0.2250 0.2250   405.01 0.2500
 -20.38   371.54 0.2250 0.2250   406.77 0.2500
 -19.02   372.36 0.2250 0.2250   408.41 0.2500
 -17.66   373.12 0.2250 0.2250   409.94 0.2500
 -16.31   373.83 0.2250 0.2250   411.35 0.2500
 -14.98   374.48 0.2250 0.2250   412.65 0.2500
 -13.65   375.07 0.2250 0.2250   413.84 0.2500
 -12.33   375.61 0.2250 0.2250   414.91 0.2500
 -11.01   376.09 0.2250 0.2250   415.88 0.2500
  -9.70   376.52 0.2250 0.2250   416.73 0.2500
  -8.40   376.89 0.2250 0.2250   417.48 0.2500
  -7.10   377.21 0.2250 0.2250   418.12 0.2500
  -5.80   377.48 0.2250 0.2250   418.65 0.2500
  -4.51   377.69 0.2250 0.2250   419.08 0.2500
  -3.22   377.85 0.2250 0.2250   419.40 0.2500
  -1.93   377.96 0.2250 0.2250   419.61 0.2500
  -0.64   378.01 0.2250 0.2250   419.72 0.2500
   0.64   378.01 0.2250 0.2250   419.72 0.2500
   1.93   377.96 0.2250 0.2250   419.61 0.2500
   3.22   377.85 0.2250 0.2250   419.40 0.2500
   4.51   377.69 0.2250 0.2250   419.08 0.2500
   5.80   377.48 0.2250 0.2250   418.65 0.2500
   7.10   377.21 0.2250 0.2250   418.12 0.2500
   8.40   376.89 0.2250 0.2250   417.48 0.2500
   9.70   376.52 0.2250 0.2250   416.73 0.2500
  11.01   376.09 0.2250 0.2250   415.88 0.2500
  12.33   375.61 0.2250 0.2250   414.91 0.2500
  13.65   375.07 0.2250 0.2250   413.84 0.2500
  14.98   374.48 0.2250 0.2250   412.65 0.2500
  16.31   373.83 0.2250 0.2250   411.35 0.2500
  17.66   373.12 0.2250 0.2250   409.94 0.2500
  19.02   372.36 0.2250 0.2250   408.41 0.2500
  20.38   371.54 0.2250 0.2250   406.77 0.2500
  21.76   370.66 0.2250 0.2250   405.01 0.2500
  23.16   369.72 0.2250 0.2250   403.13 0.2500
  24.57   368.72 0.2250 0.2250   401.13 0.2500
  25.99   367.66 0.2250 0.2250   399.01 0.2500
  27.43   366.53 0.2250 0.2250   396.77 0.2500
  28.89   365.35 0.2250 0.2250   394.39 0.2500
  30.37   364.09 0.2250 0.2250   391.89 0.2500
  31.88   362.77 0.2250 0.2250   389.25 0.2500
  33.41   361.39 0.2250 0.2250   386.48 0.2500
  34.96   359.93 0.2250 0.2250   383.56 0.2500
  36.55   358.40 0.2250 0.2250   380.51 0.2500
  38.17   356.80 0.2250 0.2250   377.31 0.2500
  39.83   355.13 0.2250 0.2250   373.95 0.2500
  41.52   353.37 0.2250 0.2250   370.44 0.2500
  43.27   351.54 0.2250 0.2250   366.77 0.2500
  45.06   349.62 0.2250 0.2250   362.93 0.2500
  46.91   347.61 0.2250 0.2250   358.92 0.2500
  48.83   345.51 0.2250 0.2250   354.72 0.2500
  50.83   343.32 0.2250 0.2250   350.33 0.2500
  52.92   341.02 0.2250 0.2250   345.74 0.2500
  55.11   338.62 0.2250 0.2250   340.94 0.2500
  57.43   336.10 0.2250 0.2250   335.91 0.2500
  59.90   333.47 0.2250 0.2250   330.63 0.2500
  62.58   330.70 0.2250 0.2250   325.09 0.2500
  65.52   327.78 0.2250 0.2250   319.25 0.2500
  68.84   324.69 0.2250 0.2250   313.07 0.2500
  72.76   321.37 0.2250 0.2250   306.44 0.2500
  77.83   317.63 0.2250 0.2250   298.97 0.2500
  90.00   311.98 0.2250 0.2250   287.67 0.2500
