# Name of benchmark/experiment: FILLET Experiment 2 (cold start)
# Case number: 46
# Instellation (S_earth): 1.25
# XCO2 (ppm): 280.0
# Obliquity (degrees): 20.0
# Mode: seasonal
#
# Columns of data (annually averaged for last orbit)
# Lat Tsurf Asurf ATOA OLR Fland
 -90.00   232.15 0.6000 0.6000   127.99 0.2500
 -77.83   234.66 0.6000 0.6000   133.02 0.2500
 -72.76   236.32 0.6000 0.6000   136.34 0.2500
 -68.84   237.80 0.6000 0.6000   139.30 0.2500
 -65.52   239.17 0.6000 0.6000   142.05 0.2500
 -62.58   240.47 0.6000 0.6000   144.65 0.2500
 -59.90   241.71 0.6000 0.6000   147.11 0.2500
 -57.43   242.88 0.6000 0.6000   149.46 0.2500
 -55.11   244.00 0.6000 0.6000   151.70 0.2500
 -52.92   245.07 0.6000 0.6000   153.83 0.2500
 -50.83   246.09 0.6000 0.6000   155.88 0.2500
 -48.83   247.06 0.6000 0.6000   157.83 0.2500
 -46.91   248.00 0.6000 0.6000   159.70 0.2500
 -45.06   248.89 0.6000 0.6000   161.48 0.2500
 -43.27   249.75 0.6000 0.6000   163.19 0.2500
 -41.52   250.56 0.6000 0.6000   164.82 0.2500
 -39.83   251.34 0.6000 0.6000   166.39 0.2500
 -38.17   252.09 0.6000 0.6000   167.88 0.2500
 -36.55   252.80 0.6000 0.6000   169.30 0.2500
 -34.96   253.48 0.6000 0.6000   170.66 0.2500
 -33.41   254.13 0.6000 0.6000   171.96 0.2500
 -31.88   254.75 0.6000 0.6000   173.19 0.2500
 -30.37   255.33 0.6000 0.6000   174.37 0.2500
 -28.89   255.89 0.6000 0.6000   175.48 0.2500
 -27.43   256.42 0.6000 0.6000   176.54 0.2500
 -25.99   256.92 0.6000 0.6000   177.54 0.2500
 -24.57   257.39 0.6000 0.6000   178.48 0.2500
 -23.16   257.83 0.6000 0.6000   179.37 0.2500
 -21.76   258.25 0.6000 0.6000   180.21 0.2500
 -20.38   258.64 0.6000 0.6000   180.99 0.2500
 -19.02   259.01 0.6000 0.6000   181.72 0.2500
 -17.66   259.35 0.6000 0.6000   182.40 0.2500
 -16.31   259.66 0.6000 0.6000   183.03 0.2500
 -14.98   259.95 0.6000 0.6000   183.60 0.2500
 -13.65   260.22 0.6000 0.6000   184.13 0.2500
 -12.33   260.46 0.6000 0.6000   184.61 0.2500
 -11.01   260.67 0.6000 0.6000   185.04 0.2500
  -9.70   260.86 0.6000 0.6000   185.42 0.2500
  -8.40   261.03 0.6000 0.6000   185.75 0.2500
  -7.10   261.17 0.6000 0.6000   186.04 0.2500
  -5.80   261.29 0.6000 0.6000   186.28 0.2500
  -4.51   261.38 0.6000 0.6000   186.46 0.2500
  -3.22   261.45 0.6000 0.6000   186.61 0.2500
  -1.93   261.50 0.6000 0.6000   186.70 0.2500
  -0.64   261.52 0.6000 0.6000   186.75 0.2500
   0.64   261.52 0.6000 0.6000   186.75 0.2500
   1.93   261.50 0.6000 0.6000   186.70 0.2500
   3.22   261.45 0.6000 0.6000   186.61 0.2500
   4.51   261.38 0.6000 0.6000   186.46 0.2500
   5.80   261.29 0.6000 0.6000   186.28 0.2500
   7.10   261.17 0.6000 0.6000   186.04 0.2500
   8.40   261.03 0.6000 0.6000   185.75 0.2500
   9.70   260.86 0.6000 0.6000   185.42 0.2500
  11.01   260.67 0.6000 0.6000   185.04 0.2500
  12.33   260.46 0.6000 0.6000   184.61 0.2500
  13.65   260.22 0.6000 0.6000   184.13 0.2500
  14.98   259.95 0.6000 0.6000   183.60 0.2500
  16.31   259.66 0.6000 0.6000   183.03 0.2500
  17.66   259.35 0.6000 0.6000   182.40 0.2500
  19.02   259.01 0.6000 0.6000   181.72 0.2500
  20.38   258.64 0.6000 0.6000   180.99 0.2500
  21.76   258.25 0.6000 0.6000   180.21 0.2500
  23.16   257.83 0.6000 0.6000   179.37 0.2500
  24.57   257.39 0.6000 0.6000   178.48 0.2500
  25.99   256.92 0.6000 0.6000   177.54 0.2500
  27.43   256.42 0.6000 0.6000   176.54 0.2500
  28.89   255.89 0.6000 0.6000   175.48 0.2500
  30.37   255.33 0.6000 0.6000   174.37 0.2500
  31.88   254.75 0.6000 0.6000   173.19 0.2500
  33.41   254.13 0.6000 0.6000   171.96 0.2500
  34.96   253.48 0.6000 0.6000   170.66 0.2500
  36.55   252.80 0.6000 0.6000   169.30 0.2500
  38.17   252.09 0.6000 0.6000   167.88 0.2500
  39.83   251.34 0.6000 0.6000   166.39 0.2500
  41.52   250.56 0.6000 0.6000   164.82 0.2500
  43.27   249.75 0.6000 0.6000   163.19 0.2500
  45.06   248.89 0.6000 0.6000   161.48 0.2500
  46.91   248.00 0.6000 0.6000   159.70 0.2500
  48.83   247.06 0.6000 0.6000   157.83 0.2500
  50.83   246.09 0.6000 0.6000   155.88 0.2500
  52.92   245.07 0.6000 0.6000   153.83 0.2500
  55.11   244.00 0.6000 0.6000   151.70 0.2500
  57.43   242.88 0.6000 0.6000   149.46 0.2500
  59.90   241.71 0.6000 0.6000   147.11 0.2500
  62.58   240.47 0.6000 0.6000   144.65 0.2500
  65.52   239.17 0.6000 0.6000   142.05 0.2500
  68.84   237.80 0.6000 0.6000   139.30 0.2500
  72.76   236.32 0.6000 0.6000   136.34 0.2500
  77.83   234.66 0.6000 0.6000   133.02 0.2500
  90.00   232.15 0.6000 0.6000   127.99 0.2500
